Elapsed time,vals
0,-0.085
0.0000006,-0.08
0.0000011,-0.07
0.0000017,-0.075
0.0000022,-0.095
0.0000028,-0.09
0.0000033,-0.1
0.0000039,-0.1
0.0000044,-0.1
0.000005,-0.085
0.0000056,-0.06
0.0000061,-0.045
0.0000067,-0.055
0.0000072,-0.06
0.0000078,-0.07
0.0000083,-0.08
0.0000089,-0.085
0.0000094,-0.08
0.00001,-0.07
0.0000106,-0.04
0.0000111,-0.05
0.0000117,-0.045
0.0000122,-0.04
0.0000128,-0.04
0.0000133,-0.055
0.0000139,-0.06
0.0000144,-0.055
0.000015,-0.055
0.0000156,-0.055
0.0000161,-0.045
0.0000167,-0.04
0.0000172,-0.045
0.0000178,-0.04
0.0000183,-0.03
0.0000189,-0.035
0.0000194,-0.045
0.00002,-0.055
0.0000206,-0.055
0.0000211,-0.05
0.0000217,-0.02
0.0000222,-0.015
0.0000228,-0.01
0.0000233,0.005
0.0000239,0
0.0000244,-0.005
0.000025,-0.025
0.0000256,-0.035
0.0000261,-0.03
0.0000267,-0.03
0.0000272,-0.015
0.0000278,-0.005
0.0000283,0
0.0000289,0.01
0.0000294,0.02
0.00003,0
0.0000306,-0.005
0.0000311,0.005
0.0000317,0.005
0.0000322,0.01
0.0000328,0.025
0.0000333,0.04
0.0000339,0.055
0.0000344,0.06
0.000035,0.045
0.0000356,0.04
0.0000361,0.045
0.0000367,0.04
0.0000372,0.04
0.0000378,0.07
0.0000383,0.075
0.0000389,0.09
0.0000394,0.105
0.00004,0.105
0.0000406,0.115
0.0000411,0.105
0.0000417,0.1
0.0000422,0.1
0.0000428,0.095
0.0000433,0.125
0.0000439,0.155
0.0000444,0.16
0.000045,0.16
0.0000456,0.175
0.0000461,0.175
0.0000467,0.155
0.0000472,0.16
0.0000478,0.15
0.0000483,0.15
0.0000489,0.16
0.0000494,0.18
0.00005,0.19
0.0000506,0.19
0.0000511,0.2
0.0000517,0.19
0.0000522,0.18
0.0000528,0.175
0.0000533,0.165
0.0000539,0.16
0.0000544,0.165
0.000055,0.155
0.0000556,0.165
0.0000561,0.165
0.0000567,0.17
0.0000572,0.145
0.0000578,0.135
0.0000583,0.11
0.0000589,0.09
0.0000594,0.07
0.00006,0.075
0.0000606,0.085
0.0000611,0.085
0.0000617,0.07
0.0000622,0.07
0.0000628,0.05
0.0000633,0.04
0.0000639,0.025
0.0000644,0.005
0.000065,-0.005
0.0000656,0
0.0000661,0
0.0000667,0.005
0.0000672,0.01
0.0000678,0
0.0000683,0.01
0.0000689,0.015
0.0000694,0.03
0.00007,0.035
0.0000706,0.045
0.0000711,0.065
0.0000717,0.085
0.0000722,0.09
0.0000728,0.12
0.0000733,0.115
0.0000739,0.09
0.0000744,0.085
0.000075,0.07
0.0000756,0.08
0.0000761,0.08
0.0000767,0.09
0.0000772,0.095
0.0000778,0.11
0.0000783,0.115
0.0000789,0.13
0.0000794,0.115
0.00008,0.1
0.0000806,0.095
0.0000811,0.095
0.0000817,0.095
0.0000822,0.1
0.0000828,0.11
0.0000833,0.12
0.0000839,0.125
0.0000844,0.14
0.000085,0.135
0.0000856,0.115
0.0000861,0.115
0.0000867,0.115
0.0000872,0.115
0.0000878,0.125
0.0000883,0.13
0.0000889,0.125
0.0000894,0.14
0.00009,0.14
0.0000906,0.14
0.0000911,0.13
0.0000917,0.105
0.0000922,0.1
0.0000928,0.1
0.0000933,0.13
0.0000939,0.14
0.0000944,0.135
0.000095,0.15
0.0000956,0.145
0.0000961,0.13
0.0000967,0.125
0.0000972,0.125
0.0000978,0.115
0.0000983,0.12
0.0000989,0.125
0.0000994,0.14
0.0001,0.14
0.0001006,0.15
0.0001011,0.145
0.0001017,0.14
0.0001022,0.135
0.0001028,0.14
0.0001033,0.125
0.0001039,0.125
0.0001044,0.135
0.000105,0.145
0.0001056,0.145
0.0001061,0.14
0.0001067,0.135
0.0001072,0.12
0.0001078,0.12
0.0001083,0.11
0.0001089,0.115
0.0001094,0.12
0.00011,0.135
0.0001106,0.135
0.0001111,0.13
0.0001117,0.135
0.0001122,0.13
0.0001128,0.11
0.0001133,0.11
0.0001139,0.11
0.0001144,0.105
0.000115,0.115
0.0001156,0.125
0.0001161,0.13
0.0001167,0.115
0.0001172,0.12
0.0001178,0.115
0.0001183,0.105
0.0001189,0.1
0.0001194,0.105
0.00012,0.09
0.0001206,0.1
0.0001211,0.105
0.0001217,0.11
0.0001222,0.12
0.0001228,0.135
0.0001233,0.12
0.0001239,0.11
0.0001244,0.095
0.000125,0.1
0.0001256,0.095
0.0001261,0.1
0.0001267,0.11
0.0001272,0.11
0.0001278,0.115
0.0001283,0.115
0.0001289,0.095
0.0001294,0.08
0.00013,0.075
0.0001306,0.07
0.0001311,0.07
0.0001317,0.075
0.0001322,0.09
0.0001328,0.085
0.0001333,0.1
0.0001339,0.125
0.0001344,0.11
0.000135,0.105
0.0001356,0.075
0.0001361,0.08
0.0001367,0.065
0.0001372,0.075
0.0001378,0.08
0.0001383,0.09
0.0001389,0.1
0.0001394,0.115
0.00014,0.105
0.0001406,0.09
0.0001411,0.085
0.0001417,0.09
0.0001422,0.085
0.0001428,0.095
0.0001433,0.11
0.0001439,0.135
0.0001444,0.13
0.000145,0.135
0.0001456,0.125
0.0001461,0.12
0.0001467,0.11
0.0001472,0.105
0.0001478,0.095
0.0001483,0.11
0.0001489,0.14
0.0001494,0.135
0.00015,0.14
0.0001506,0.14
0.0001511,0.13
0.0001517,0.125
0.0001522,0.12
0.0001528,0.105
0.0001533,0.1
0.0001539,0.12
0.0001544,0.15
0.000155,0.16
0.0001556,0.16
0.0001561,0.17
0.0001567,0.16
0.0001572,0.12
0.0001578,0.115
0.0001583,0.115
0.0001589,0.095
0.0001594,0.095
0.00016,0.1
0.0001606,0.095
0.0001611,0.09
0.0001617,0.09
0.0001622,0.085
0.0001628,0.055
0.0001633,0.065
0.0001639,0.06
0.0001644,0.065
0.000165,0.075
0.0001656,0.08
0.0001661,0.08
0.0001667,0.095
0.0001672,0.075
0.0001678,0.055
0.0001683,0.05
0.0001689,0.045
0.0001694,0.035
0.00017,0.045
0.0001706,0.045
0.0001711,0.055
0.0001717,0.06
0.0001722,0.06
0.0001728,0.06
0.0001733,0.06
0.0001739,0.05
0.0001744,0.035
0.000175,0.02
0.0001756,0.025
0.0001761,0.035
0.0001767,0.045
0.0001772,0.055
0.0001778,0.06
0.0001783,0.055
0.0001789,0.035
0.0001794,0.025
0.00018,0.03
0.0001806,0.02
0.0001811,0.03
0.0001817,0.05
0.0001822,0.03
0.0001828,0.04
0.0001833,0.05
0.0001839,0.04
0.0001844,0.025
0.000185,0
0.0001856,-0.01
0.0001861,-0.025
0.0001867,-0.03
0.0001872,-0.025
0.0001878,-0.015
0.0001883,-0.005
0.0001889,0.03
0.0001894,0.065
0.00019,0.11
0.0001906,0.16
0.0001911,0.2
0.0001917,0.255
0.0001922,0.335
0.0001928,0.425
0.0001933,0.53
0.0001939,0.645
0.0001944,0.72
0.000195,0.735
0.0001956,0.685
0.0001961,0.63
0.0001967,0.57
0.0001972,0.485
0.0001978,0.41
0.0001983,0.335
0.0001989,0.23
0.0001994,0.1
0.0002,0.01
0.0002006,-0.06
0.0002011,-0.1
0.0002017,-0.1
0.0002022,-0.09
0.0002028,-0.085
0.0002033,-0.06
0.0002039,-0.02
0.0002044,0.01
0.000205,0.035
0.0002056,0.04
0.0002061,0.035
0.0002067,0.015
0.0002072,-0.005
0.0002078,-0.02
0.0002083,-0.025
0.0002089,-0.01
0.0002094,0
0.00021,0.005
0.0002106,0.025
0.0002111,0.025
0.0002117,0.02
0.0002122,0
0.0002128,0.005
0.0002133,-0.015
0.0002139,-0.02
0.0002144,-0.01
0.000215,-0.01
0.0002156,0
0.0002161,0.01
0.0002167,0
0.0002172,0.005
0.0002178,0.005
0.0002183,-0.005
0.0002189,0
0.0002194,-0.01
0.00022,0
0.0002206,0.015
0.0002211,0.02
0.0002217,0.025
0.0002222,0.04
0.0002228,0.025
0.0002233,0.01
0.0002239,0
0.0002244,-0.005
0.000225,-0.005
0.0002256,0.005
0.0002261,0.025
0.0002267,0.025
0.0002272,0.03
0.0002278,0.025
0.0002283,0.01
0.0002289,0.02
0.0002294,0.005
0.00023,0.01
0.0002306,0.005
0.0002311,0.015
0.0002317,0.02
0.0002322,0.035
0.0002328,0.04
0.0002333,0.05
0.0002339,0.05
0.0002344,0.045
0.000235,0.04
0.0002356,0.025
0.0002361,0.03
0.0002367,0.03
0.0002372,0.04
0.0002378,0.045
0.0002383,0.055
0.0002389,0.06
0.0002394,0.065
0.00024,0.065
0.0002406,0.07
0.0002411,0.07
0.0002417,0.065
0.0002422,0.08
0.0002428,0.095
0.0002433,0.105
0.0002439,0.105
0.0002444,0.12
0.000245,0.115
0.0002456,0.115
0.0002461,0.11
0.0002467,0.1
0.0002472,0.1
0.0002478,0.115
0.0002483,0.13
0.0002489,0.15
0.0002494,0.155
0.00025,0.16
0.0002506,0.15
0.0002511,0.16
0.0002517,0.165
0.0002522,0.155
0.0002528,0.16
0.0002533,0.175
0.0002539,0.2
0.0002544,0.205
0.000255,0.21
0.0002556,0.205
0.0002561,0.195
0.0002567,0.185
0.0002572,0.18
0.0002578,0.18
0.0002583,0.18
0.0002589,0.18
0.0002594,0.2
0.00026,0.205
0.0002606,0.205
0.0002611,0.195
0.0002617,0.17
0.0002622,0.15
0.0002628,0.135
0.0002633,0.13
0.0002639,0.125
0.0002644,0.13
0.000265,0.115
0.0002656,0.13
0.0002661,0.13
0.0002667,0.115
0.0002672,0.095
0.0002678,0.08
0.0002683,0.07
0.0002689,0.055
0.0002694,0.03
0.00027,0.015
0.0002706,0.025
0.0002711,0.025
0.0002717,0.02
0.0002722,0.01
0.0002728,-0.005
0.0002733,-0.02
0.0002739,-0.025
0.0002744,-0.035
0.000275,-0.03
0.0002756,-0.01
0.0002761,0
0.0002767,-0.01
0.0002772,-0.005
0.0002778,-0.01
0.0002783,-0.03
0.0002789,-0.04
0.0002794,-0.055
0.00028,-0.065
0.0002806,-0.055
0.0002811,-0.04
0.0002817,-0.045
0.0002822,-0.025
0.0002828,-0.035
0.0002833,-0.03
0.0002839,-0.05
0.0002844,-0.055
0.000285,-0.06
0.0002856,-0.06
0.0002861,-0.045
0.0002867,-0.045
0.0002872,-0.035
0.0002878,-0.02
0.0002883,-0.03
0.0002889,-0.03
0.0002894,-0.05
0.00029,-0.055
0.0002906,-0.055
0.0002911,-0.06
0.0002917,-0.055
0.0002922,-0.05
0.0002928,-0.04
0.0002933,-0.055
0.0002939,-0.03
0.0002944,-0.055
0.000295,-0.05
0.0002956,-0.05
0.0002961,-0.06
0.0002967,-0.06
0.0002972,-0.045
0.0002978,-0.04
0.0002983,-0.04
0.0002989,-0.04
0.0002994,-0.04
0.0003,-0.05
0.0003006,-0.055
0.0003011,-0.055
0.0003017,-0.06
0.0003022,-0.055
0.0003028,-0.03
0.0003033,-0.03
0.0003039,-0.025
0.0003044,-0.02
0.000305,-0.015
0.0003056,-0.025
0.0003061,-0.035
0.0003067,-0.045
0.0003072,-0.05
0.0003078,-0.055
0.0003083,-0.045
0.0003089,-0.04
0.0003094,-0.02
0.00031,-0.015
0.0003106,-0.01
0.0003111,-0.015
0.0003117,-0.02
0.0003122,-0.03
0.0003128,-0.035
0.0003133,-0.04
0.0003139,-0.03
0.0003144,-0.03
0.000315,-0.025
0.0003156,-0.015
0.0003161,-0.015
0.0003167,-0.025
0.0003172,-0.02
0.0003178,-0.035
0.0003183,-0.04
0.0003189,-0.045
0.0003194,-0.045
0.00032,-0.03
0.0003206,-0.025
0.0003211,-0.005
0.0003217,-0.01
0.0003222,-0.03
0.0003228,-0.03
0.0003233,-0.035
0.0003239,-0.05
0.0003244,-0.06
0.000325,-0.04
0.0003256,-0.04
0.0003261,-0.03
0.0003267,-0.02
0.0003272,-0.025
0.0003278,-0.04
0.0003283,-0.045
0.0003289,-0.02
0.0003294,-0.05
0.00033,-0.055
0.0003306,-0.04
0.0003311,-0.03
0.0003317,-0.035
0.0003322,-0.015
0.0003328,-0.02
0.0003333,-0.04
0.0003339,-0.05
0.0003344,-0.055
0.000335,-0.06
0.0003356,-0.06
0.0003361,-0.055
0.0003367,-0.04
0.0003372,-0.04
0.0003378,-0.035
0.0003383,-0.02
0.0003389,-0.035
0.0003394,-0.045
0.00034,-0.05
0.0003406,-0.07
0.0003411,-0.07
0.0003417,-0.05
0.0003422,-0.045
0.0003428,-0.035
0.0003433,-0.035
0.0003439,-0.035
0.0003444,-0.045
0.000345,-0.055
0.0003456,-0.05
0.0003461,-0.05
0.0003467,-0.04
0.0003472,-0.035
0.0003478,-0.025
0.0003483,-0.005
0.0003489,-0.01
0.0003494,-0.025
0.00035,-0.04
0.0003506,-0.03
0.0003511,-0.035
0.0003517,-0.04
0.0003522,-0.04
0.0003528,-0.025
0.0003533,-0.015
0.0003539,-0.01
0.0003544,0.015
0.000355,-0.005
0.0003556,-0.005
0.0003561,-0.015
0.0003567,-0.02
0.0003572,-0.025
0.0003578,-0.025
0.0003583,-0.01
0.0003589,0.005
0.0003594,0.015
0.00036,0.02
0.0003606,0.015
0.0003611,0.005
0.0003617,0.005
0.0003622,0
0.0003628,0
0.0003633,0
0.0003639,0
0.0003644,0.005
0.000365,0.02
0.0003656,0.03
0.0003661,0.02
0.0003667,-0.01
0.0003672,-0.025
0.0003678,-0.035
0.0003683,-0.055
0.0003689,-0.05
0.0003694,-0.045
0.00037,-0.04
0.0003706,-0.045
0.0003711,-0.025
0.0003717,-0.035
0.0003722,-0.06
0.0003728,-0.06
0.0003733,-0.07
0.0003739,-0.08
0.0003744,-0.065
0.000375,-0.055
0.0003756,-0.05
0.0003761,-0.05
0.0003767,-0.035
0.0003772,-0.055
0.0003778,-0.055
0.0003783,-0.06
0.0003789,-0.065
0.0003794,-0.065
0.00038,-0.06
0.0003806,-0.065
0.0003811,-0.065
0.0003817,-0.065
0.0003822,-0.065
0.0003828,-0.065
0.0003833,-0.08
0.0003839,-0.085
0.0003844,-0.08
0.000385,-0.1
0.0003856,-0.09
0.0003861,-0.08
0.0003867,-0.06
0.0003872,-0.045
0.0003878,-0.045
0.0003883,-0.055
0.0003889,-0.06
0.0003894,-0.085
0.00039,-0.085
0.0003906,-0.1
0.0003911,-0.1
0.0003917,-0.08
0.0003922,-0.075
0.0003928,-0.07
0.0003933,-0.075
0.0003939,-0.095
0.0003944,-0.105
0.000395,-0.115
0.0003956,-0.14
0.0003961,-0.155
0.0003967,-0.135
0.0003972,-0.105
0.0003978,-0.045
0.0003983,0.02
0.0003989,0.075
0.0003994,0.125
0.0004,0.17
0.0004006,0.225
0.0004011,0.275
0.0004017,0.39
0.0004022,0.515
0.0004028,0.64
0.0004033,0.69
0.0004039,0.66
0.0004044,0.615
0.000405,0.555
0.0004056,0.485
0.0004061,0.39
0.0004067,0.305
0.0004072,0.195
0.0004078,0.085
0.0004083,-0.03
0.0004089,-0.115
0.0004094,-0.155
0.00041,-0.145
0.0004106,-0.125
0.0004111,-0.115
0.0004117,-0.11
0.0004122,-0.085
0.0004128,-0.05
0.0004133,-0.055
0.0004139,-0.03
0.0004144,-0.035
0.000415,-0.045
0.0004156,-0.04
0.0004161,-0.04
0.0004167,-0.065
0.0004172,-0.07
0.0004178,-0.08
0.0004183,-0.075
0.0004189,-0.07
0.0004194,-0.06
0.00042,-0.05
0.0004206,-0.03
0.0004211,-0.045
0.0004217,-0.045
0.0004222,-0.055
0.0004228,-0.06
0.0004233,-0.055
0.0004239,-0.06
0.0004244,-0.04
0.000425,-0.035
0.0004256,-0.025
0.0004261,-0.01
0.0004267,-0.025
0.0004272,-0.045
0.0004278,-0.05
0.0004283,-0.055
0.0004289,-0.05
0.0004294,-0.055
0.00043,-0.03
0.0004306,-0.025
0.0004311,-0.02
0.0004317,-0.01
0.0004322,-0.01
0.0004328,-0.02
0.0004333,-0.03
0.0004339,-0.025
0.0004344,-0.02
0.000435,-0.015
0.0004356,0.005
0.0004361,0.02
0.0004367,0.025
0.0004372,0.025
0.0004378,0.015
0.0004383,0.005
0.0004389,-0.01
0.0004394,-0.01
0.00044,-0.01
0.0004406,0.01
0.0004411,0.015
0.0004417,0.025
0.0004422,0.045
0.0004428,0.06
0.0004433,0.065
0.0004439,0.05
0.0004444,0.04
0.000445,0.045
0.0004456,0.04
0.0004461,0.045
0.0004467,0.045
0.0004472,0.06
0.0004478,0.065
0.0004483,0.07
0.0004489,0.065
0.0004494,0.065
0.00045,0.065
0.0004506,0.065
0.0004511,0.075
0.0004517,0.08
0.0004522,0.1
0.0004528,0.115
0.0004533,0.125
0.0004539,0.13
0.0004544,0.14
0.000455,0.14
0.0004556,0.15
0.0004561,0.135
0.0004567,0.13
0.0004572,0.14
0.0004578,0.17
0.0004583,0.175
0.0004589,0.19
0.0004594,0.2
0.00046,0.205
0.0004606,0.19
0.0004611,0.2
0.0004617,0.2
0.0004622,0.195
0.0004628,0.21
0.0004633,0.225
0.0004639,0.235
0.0004644,0.23
0.000465,0.24
0.0004656,0.225
0.0004661,0.225
0.0004667,0.205
0.0004672,0.2
0.0004678,0.19
0.0004683,0.19
0.0004689,0.205
0.0004694,0.205
0.00047,0.22
0.0004706,0.23
0.0004711,0.205
0.0004717,0.195
0.0004722,0.175
0.0004728,0.165
0.0004733,0.155
0.0004739,0.15
0.0004744,0.14
0.000475,0.135
0.0004756,0.13
0.0004761,0.11
0.0004767,0.105
0.0004772,0.085
0.0004778,0.075
0.0004783,0.065
0.0004789,0.06
0.0004794,0.065
0.00048,0.06
0.0004806,0.06
0.0004811,0.05
0.0004817,0.045
0.0004822,0.04
0.0004828,0.02
0.0004833,0.01
0.0004839,0
0.0004844,0
0.000485,0.01
0.0004856,0.015
0.0004861,0.01
0.0004867,0.02
0.0004872,0.01
0.0004878,0
0.0004883,-0.02
0.0004889,-0.02
0.0004894,-0.04
0.00049,-0.035
0.0004906,-0.025
0.0004911,-0.015
0.0004917,-0.005
0.0004922,0.005
0.0004928,-0.005
0.0004933,-0.02
0.0004939,-0.025
0.0004944,-0.025
0.000495,-0.025
0.0004956,-0.025
0.0004961,-0.025
0.0004967,-0.01
0.0004972,0.005
0.0004978,0.015
0.0004983,0.01
0.0004989,0.005
0.0004994,-0.02
0.0005,-0.015
0.0005006,-0.015
0.0005011,-0.02
0.0005017,-0.025
0.0005022,-0.02
0.0005028,-0.02
0.0005033,0
0.0005039,0.015
0.0005044,-0.005
0.000505,-0.01
0.0005056,-0.02
0.0005061,-0.03
0.0005067,-0.03
0.0005072,-0.015
0.0005078,0
0.0005083,0.01
0.0005089,0.015
0.0005094,0.015
0.00051,-0.005
0.0005106,-0.01
0.0005111,-0.035
0.0005117,-0.025
0.0005122,-0.025
0.0005128,-0.02
0.0005133,0.005
0.0005139,0.015
0.0005144,0.02
0.000515,0.025
0.0005156,0
0.0005161,-0.01
0.0005167,-0.025
0.0005172,-0.035
0.0005178,-0.02
0.0005183,-0.01
0.0005189,0.005
0.0005194,0.005
0.00052,0.01
0.0005206,0.015
0.0005211,0
0.0005217,-0.005
0.0005222,-0.02
0.0005228,-0.025
0.0005233,-0.025
0.0005239,-0.015
0.0005244,0
0.000525,0.005
0.0005256,0.015
0.0005261,0.02
0.0005267,0
0.0005272,-0.015
0.0005278,-0.02
0.0005283,-0.03
0.0005289,-0.025
0.0005294,-0.005
0.00053,-0.005
0.0005306,0
0.0005311,0.01
0.0005317,0.015
0.0005322,0.005
0.0005328,-0.01
0.0005333,-0.015
0.0005339,-0.02
0.0005344,-0.015
0.000535,-0.005
0.0005356,-0.005
0.0005361,-0.005
0.0005367,-0.01
0.0005372,-0.01
0.0005378,-0.01
0.0005383,-0.015
0.0005389,-0.025
0.0005394,-0.025
0.00054,-0.02
0.0005406,-0.01
0.0005411,-0.01
0.0005417,-0.005
0.0005422,-0.005
0.0005428,-0.01
0.0005433,-0.025
0.0005439,-0.025
0.0005444,-0.025
0.000545,-0.035
0.0005456,-0.03
0.0005461,-0.02
0.0005467,-0.01
0.0005472,-0.005
0.0005478,-0.01
0.0005483,-0.015
0.0005489,-0.025
0.0005494,-0.03
0.00055,-0.035
0.0005506,-0.04
0.0005511,-0.025
0.0005517,-0.02
0.0005522,-0.015
0.0005528,-0.005
0.0005533,0
0.0005539,-0.01
0.0005544,-0.025
0.000555,-0.03
0.0005556,-0.045
0.0005561,-0.045
0.0005567,-0.045
0.0005572,-0.035
0.0005578,-0.04
0.0005583,-0.025
0.0005589,-0.01
0.0005594,-0.025
0.00056,-0.04
0.0005606,-0.04
0.0005611,-0.03
0.0005617,-0.035
0.0005622,-0.04
0.0005628,-0.025
0.0005633,-0.02
0.0005639,-0.015
0.0005644,-0.005
0.000565,-0.01
0.0005656,-0.025
0.0005661,-0.04
0.0005667,-0.045
0.0005672,-0.04
0.0005678,-0.02
0.0005683,-0.015
0.0005689,-0.01
0.0005694,0
0.00057,-0.005
0.0005706,-0.01
0.0005711,-0.01
0.0005717,-0.015
0.0005722,0
0.0005728,0.01
0.0005733,0.025
0.0005739,0.065
0.0005744,0.07
0.000575,0.085
0.0005756,0.1
0.0005761,0.1
0.0005767,0.09
0.0005772,0.09
0.0005778,0.095
0.0005783,0.085
0.0005789,0.1
0.0005794,0.105
0.00058,0.11
0.0005806,0.12
0.0005811,0.125
0.0005817,0.13
0.0005822,0.145
0.0005828,0.155
0.0005833,0.145
0.0005839,0.135
0.0005844,0.15
0.000585,0.165
0.0005856,0.18
0.0005861,0.185
0.0005867,0.175
0.0005872,0.17
0.0005878,0.165
0.0005883,0.175
0.0005889,0.17
0.0005894,0.16
0.00059,0.17
0.0005906,0.17
0.0005911,0.17
0.0005917,0.165
0.0005922,0.16
0.0005928,0.15
0.0005933,0.135
0.0005939,0.115
0.0005944,0.115
0.000595,0.105
0.0005956,0.11
0.0005961,0.12
0.0005967,0.125
0.0005972,0.13
0.0005978,0.14
0.0005983,0.125
0.0005989,0.125
0.0005994,0.12
0.0006,0.11
0.0006006,0.095
0.0006011,0.095
0.0006017,0.095
0.0006022,0.105
0.0006028,0.115
0.0006033,0.12
0.0006039,0.105
0.0006044,0.095
0.000605,0.08
0.0006056,0.075
0.0006061,0.075
0.0006067,0.09
0.0006072,0.11
0.0006078,0.115
0.0006083,0.12
0.0006089,0.125
0.0006094,0.095
0.00061,0.08
0.0006106,0.07
0.0006111,0.06
0.0006117,0.085
0.0006122,0.1
0.0006128,0.1
0.0006133,0.105
0.0006139,0.115
0.0006144,0.105
0.000615,0.095
0.0006156,0.085
0.0006161,0.075
0.0006167,0.07
0.0006172,0.08
0.0006178,0.075
0.0006183,0.08
0.0006189,0.09
0.0006194,0.08
0.00062,0.09
0.0006206,0.055
0.0006211,0.045
0.0006217,0.02
0.0006222,0.02
0.0006228,0.04
0.0006233,0.07
0.0006239,0.115
0.0006244,0.175
0.000625,0.235
0.0006256,0.28
0.0006261,0.325
0.0006267,0.385
0.0006272,0.445
0.0006278,0.555
0.0006283,0.68
0.0006289,0.82
0.0006294,0.89
0.00063,0.86
0.0006306,0.84
0.0006311,0.775
0.0006317,0.695
0.0006322,0.595
0.0006328,0.505
0.0006333,0.395
0.0006339,0.265
0.0006344,0.155
0.000635,0.05
0.0006356,0.01
0.0006361,0.035
0.0006367,0.04
0.0006372,0.04
0.0006378,0.055
0.0006383,0.06
0.0006389,0.075
0.0006394,0.095
0.00064,0.12
0.0006406,0.13
0.0006411,0.125
0.0006417,0.13
0.0006422,0.12
0.0006428,0.105
0.0006433,0.09
0.0006439,0.085
0.0006444,0.09
0.000645,0.105
0.0006456,0.11
0.0006461,0.11
0.0006467,0.12
0.0006472,0.13
0.0006478,0.125
0.0006483,0.11
0.0006489,0.09
0.0006494,0.075
0.00065,0.08
0.0006506,0.095
0.0006511,0.115
0.0006517,0.115
0.0006522,0.115
0.0006528,0.14
0.0006533,0.11
0.0006539,0.1
0.0006544,0.095
0.000655,0.085
0.0006556,0.1
0.0006561,0.12
0.0006567,0.13
0.0006572,0.135
0.0006578,0.14
0.0006583,0.145
0.0006589,0.13
0.0006594,0.115
0.00066,0.11
0.0006606,0.105
0.0006611,0.11
0.0006617,0.13
0.0006622,0.14
0.0006628,0.15
0.0006633,0.155
0.0006639,0.165
0.0006644,0.135
0.000665,0.115
0.0006656,0.11
0.0006661,0.115
0.0006667,0.11
0.0006672,0.13
0.0006678,0.135
0.0006683,0.14
0.0006689,0.155
0.0006694,0.165
0.00067,0.16
0.0006706,0.15
0.0006711,0.145
0.0006717,0.145
0.0006722,0.135
0.0006728,0.14
0.0006733,0.165
0.0006739,0.17
0.0006744,0.175
0.000675,0.17
0.0006756,0.17
0.0006761,0.165
0.0006767,0.175
0.0006772,0.16
0.0006778,0.165
0.0006783,0.18
0.0006789,0.21
0.0006794,0.215
0.00068,0.225
0.0006806,0.225
0.0006811,0.215
0.0006817,0.21
0.0006822,0.22
0.0006828,0.2
0.0006833,0.225
0.0006839,0.25
0.0006844,0.255
0.000685,0.26
0.0006856,0.27
0.0006861,0.27
0.0006867,0.27
0.0006872,0.265
0.0006878,0.265
0.0006883,0.25
0.0006889,0.265
0.0006894,0.265
0.00069,0.28
0.0006906,0.295
0.0006911,0.295
0.0006917,0.29
0.0006922,0.29
0.0006928,0.285
0.0006933,0.28
0.0006939,0.26
0.0006944,0.26
0.000695,0.255
0.0006956,0.26
0.0006961,0.26
0.0006967,0.27
0.0006972,0.26
0.0006978,0.235
0.0006983,0.22
0.0006989,0.19
0.0006994,0.17
0.0007,0.17
0.0007006,0.15
0.0007011,0.155
0.0007017,0.16
0.0007022,0.15
0.0007028,0.13
0.0007033,0.12
0.0007039,0.095
0.0007044,0.095
0.000705,0.075
0.0007056,0.08
0.0007061,0.075
0.0007067,0.075
0.0007072,0.065
0.0007078,0.065
0.0007083,0.035
0.0007089,0.03
0.0007094,0.02
0.00071,0.015
0.0007106,-0.005
0.0007111,0
0.0007117,0.01
0.0007122,0.01
0.0007128,0.01
0.0007133,0.03
0.0007139,0.015
0.0007144,0.005
0.000715,-0.01
0.0007156,-0.02
0.0007161,-0.03
0.0007167,-0.02
0.0007172,-0.015
0.0007178,-0.01
0.0007183,-0.005
0.0007189,0.01
0.0007194,-0.01
0.00072,-0.005
0.0007206,-0.025
0.0007211,-0.055
0.0007217,-0.04
0.0007222,-0.035
0.0007228,-0.01
0.0007233,0
0.0007239,0.005
0.0007244,0.005
0.000725,-0.005
0.0007256,-0.03
0.0007261,-0.035
0.0007267,-0.04
0.0007272,-0.03
0.0007278,-0.035
0.0007283,-0.03
0.0007289,-0.02
0.0007294,-0.015
0.00073,-0.01
0.0007306,-0.025
0.0007311,-0.035
0.0007317,-0.055
0.0007322,-0.055
0.0007328,-0.05
0.0007333,-0.04
0.0007339,-0.025
0.0007344,-0.015
0.000735,-0.02
0.0007356,-0.01
0.0007361,-0.025
0.0007367,-0.03
0.0007372,-0.035
0.0007378,-0.05
0.0007383,-0.055
0.0007389,-0.04
0.0007394,-0.04
0.00074,-0.02
0.0007406,-0.015
0.0007411,-0.02
0.0007417,-0.03
0.0007422,-0.045
0.0007428,-0.05
0.0007433,-0.055
0.0007439,-0.055
0.0007444,-0.05
0.000745,-0.02
0.0007456,-0.025
0.0007461,-0.025
0.0007467,-0.015
0.0007472,-0.035
0.0007478,-0.04
0.0007483,-0.04
0.0007489,-0.04
0.0007494,-0.04
0.00075,-0.025
0.0007506,-0.035
0.0007511,-0.03
0.0007517,-0.025
0.0007522,-0.03
0.0007528,-0.045
0.0007533,-0.06
0.0007539,-0.06
0.0007544,-0.065
0.000755,-0.06
0.0007556,-0.04
0.0007561,-0.03
0.0007567,-0.035
0.0007572,-0.03
0.0007578,-0.025
0.0007583,-0.045
0.0007589,-0.045
0.0007594,-0.065
0.00076,-0.07
0.0007606,-0.065
0.0007611,-0.055
0.0007617,-0.05
0.0007622,-0.035
0.0007628,-0.03
0.0007633,-0.03
0.0007639,-0.045
0.0007644,-0.06
0.000765,-0.065
0.0007656,-0.075
0.0007661,-0.07
0.0007667,-0.05
0.0007672,-0.05
0.0007678,-0.04
0.0007683,-0.03
0.0007689,-0.04
0.0007694,-0.045
0.00077,-0.06
0.0007706,-0.06
0.0007711,-0.065
0.0007717,-0.075
0.0007722,-0.07
0.0007728,-0.06
0.0007733,-0.055
0.0007739,-0.045
0.0007744,-0.05
0.000775,-0.055
0.0007756,-0.065
0.0007761,-0.065
0.0007767,-0.08
0.0007772,-0.065
0.0007778,-0.055
0.0007783,-0.04
0.0007789,-0.04
0.0007794,-0.03
0.00078,-0.035
0.0007806,-0.05
0.0007811,-0.075
0.0007817,-0.075
0.0007822,-0.095
0.0007828,-0.09
0.0007833,-0.065
0.0007839,-0.055
0.0007844,-0.045
0.000785,-0.045
0.0007856,-0.055
0.0007861,-0.07
0.0007867,-0.08
0.0007872,-0.075
0.0007878,-0.075
0.0007883,-0.065
0.0007889,-0.06
0.0007894,-0.055
0.00079,-0.045
0.0007906,-0.04
0.0007911,-0.04
0.0007917,-0.055
0.0007922,-0.075
0.0007928,-0.075
0.0007933,-0.08
0.0007939,-0.065
0.0007944,-0.06
0.000795,-0.055
0.0007956,-0.06
0.0007961,-0.045
0.0007967,-0.065
0.0007972,-0.075
0.0007978,-0.085
0.0007983,-0.09
0.0007989,-0.09
0.0007994,-0.075
0.0008,-0.055
0.0008006,-0.03
0.0008011,-0.025
0.0008017,-0.045
0.0008022,-0.065
0.0008028,-0.075
0.0008033,-0.085
0.0008039,-0.09
0.0008044,-0.1
0.000805,-0.085
0.0008056,-0.07
0.0008061,-0.06
0.0008067,-0.045
0.0008072,-0.04
0.0008078,-0.06
0.0008083,-0.07
0.0008089,-0.075
0.0008094,-0.085
0.00081,-0.085
0.0008106,-0.07
0.0008111,-0.06
0.0008117,-0.06
0.0008122,-0.055
0.0008128,-0.05
0.0008133,-0.065
0.0008139,-0.075
0.0008144,-0.075
0.000815,-0.08
0.0008156,-0.07
0.0008161,-0.06
0.0008167,-0.055
0.0008172,-0.055
0.0008178,-0.045
0.0008183,-0.04
0.0008189,-0.065
0.0008194,-0.08
0.00082,-0.09
0.0008206,-0.07
0.0008211,-0.08
0.0008217,-0.07
0.0008222,-0.05
0.0008228,-0.045
0.0008233,-0.05
0.0008239,-0.045
0.0008244,-0.055
0.000825,-0.07
0.0008256,-0.075
0.0008261,-0.07
0.0008267,-0.065
0.0008272,-0.06
0.0008278,-0.055
0.0008283,-0.055
0.0008289,-0.04
0.0008294,-0.045
0.00083,-0.06
0.0008306,-0.055
0.0008311,-0.05
0.0008317,-0.065
0.0008322,-0.055
0.0008328,-0.04
0.0008333,-0.035
0.0008339,-0.015
0.0008344,-0.02
0.000835,-0.03
0.0008356,-0.035
0.0008361,-0.05
0.0008367,-0.05
0.0008372,-0.05
0.0008378,-0.05
0.0008383,-0.04
0.0008389,-0.02
0.0008394,0.005
0.00084,0.01
0.0008406,0.015
0.0008411,0
0.0008417,0
0.0008422,-0.015
0.0008428,-0.02
0.0008433,-0.02
0.0008439,-0.02
0.0008444,-0.005
0.000845,0.01
0.0008456,0.045
0.0008461,0.025
0.0008467,0.005
0.0008472,0
0.0008478,-0.025
0.0008483,-0.045
0.0008489,-0.04
0.0008494,-0.025
0.00085,-0.025
0.0008506,-0.03
0.0008511,-0.03
0.0008517,-0.05
0.0008522,-0.06
0.0008528,-0.075
0.0008533,-0.085
0.0008539,-0.09
0.0008544,-0.09
0.000855,-0.07
0.0008556,-0.07
0.0008561,-0.055
0.0008567,-0.045
0.0008572,-0.055
0.0008578,-0.07
0.0008583,-0.08
0.0008589,-0.08
0.0008594,-0.09
0.00086,-0.09
0.0008606,-0.08
0.0008611,-0.06
0.0008617,-0.06
0.0008622,-0.06
0.0008628,-0.08
0.0008633,-0.08
0.0008639,-0.085
0.0008644,-0.105
0.000865,-0.11
0.0008656,-0.1
0.0008661,-0.08
0.0008667,-0.075
0.0008672,-0.065
0.0008678,-0.055
0.0008683,-0.07
0.0008689,-0.085
0.0008694,-0.1
0.00087,-0.11
0.0008706,-0.105
0.0008711,-0.09
0.0008717,-0.085
0.0008722,-0.08
0.0008728,-0.075
0.0008733,-0.05
0.0008739,-0.08
0.0008744,-0.085
0.000875,-0.09
0.0008756,-0.11
0.0008761,-0.12
0.0008767,-0.105
0.0008772,-0.095
0.0008778,-0.1
0.0008783,-0.1
0.0008789,-0.105
0.0008794,-0.125
0.00088,-0.13
0.0008806,-0.125
0.0008811,-0.125
0.0008817,-0.09
0.0008822,-0.02
0.0008828,0.045
0.0008833,0.095
0.0008839,0.155
0.0008844,0.235
0.000885,0.275
0.0008856,0.36
0.0008861,0.46
0.0008867,0.59
0.0008872,0.67
0.0008878,0.675
0.0008883,0.675
0.0008889,0.62
0.0008894,0.575
0.00089,0.465
0.0008906,0.38
0.0008911,0.27
0.0008917,0.135
0.0008922,-0.01
0.0008928,-0.13
0.0008933,-0.18
0.0008939,-0.185
0.0008944,-0.15
0.000895,-0.135
0.0008956,-0.11
0.0008961,-0.085
0.0008967,-0.07
0.0008972,-0.07
0.0008978,-0.075
0.0008983,-0.06
0.0008989,-0.05
0.0008994,-0.05
0.0009,-0.035
0.0009006,-0.03
0.0009011,-0.035
0.0009017,-0.05
0.0009022,-0.06
0.0009028,-0.06
0.0009033,-0.06
0.0009039,-0.065
0.0009044,-0.05
0.000905,-0.04
0.0009056,-0.03
0.0009061,-0.04
0.0009067,-0.03
0.0009072,-0.045
0.0009078,-0.065
0.0009083,-0.06
0.0009089,-0.065
0.0009094,-0.04
0.00091,-0.04
0.0009106,-0.02
0.0009111,-0.01
0.0009117,-0.015
0.0009122,-0.015
0.0009128,-0.03
0.0009133,-0.045
0.0009139,-0.04
0.0009144,-0.055
0.000915,-0.045
0.0009156,-0.03
0.0009161,-0.01
0.0009167,0.005
0.0009172,0.01
0.0009178,0
0.0009183,-0.025
0.0009189,-0.03
0.0009194,-0.035
0.00092,-0.065
0.0009206,-0.04
0.0009211,-0.015
0.0009217,-0.015
0.0009222,-0.005
0.0009228,0.015
0.0009233,0.01
0.0009239,0.005
0.0009244,-0.005
0.000925,-0.01
0.0009256,-0.015
0.0009261,0
0.0009267,-0.005
0.0009272,0
0.0009278,0.01
0.0009283,0.025
0.0009289,0.03
0.0009294,0.015
0.00093,0.015
0.0009306,0
0.0009311,0.01
0.0009317,0.01
0.0009322,0.03
0.0009328,0.045
0.0009333,0.055
0.0009339,0.065
0.0009344,0.07
0.000935,0.065
0.0009356,0.06
0.0009361,0.05
0.0009367,0.065
0.0009372,0.07
0.0009378,0.1
0.0009383,0.11
0.0009389,0.115
0.0009394,0.13
0.00094,0.13
0.0009406,0.12
0.0009411,0.115
0.0009417,0.115
0.0009422,0.125
0.0009428,0.14
0.0009433,0.155
0.0009439,0.17
0.0009444,0.165
0.000945,0.175
0.0009456,0.165
0.0009461,0.17
0.0009467,0.185
0.0009472,0.18
0.0009478,0.175
0.0009483,0.195
0.0009489,0.2
0.0009494,0.21
0.00095,0.195
0.0009506,0.215
0.0009511,0.195
0.0009517,0.195
0.0009522,0.19
0.0009528,0.17
0.0009533,0.165
0.0009539,0.17
0.0009544,0.185
0.000955,0.17
0.0009556,0.175
0.0009561,0.17
0.0009567,0.175
0.0009572,0.13
0.0009578,0.125
0.0009583,0.12
0.0009589,0.105
0.0009594,0.105
0.00096,0.11
0.0009606,0.105
0.0009611,0.1
0.0009617,0.09
0.0009622,0.075
0.0009628,0.065
0.0009633,0.045
0.0009639,0.025
0.0009644,0.005
0.000965,0.005
0.0009656,-0.005
0.0009661,0.005
0.0009667,0.005
0.0009672,0
0.0009678,-0.015
0.0009683,-0.025
0.0009689,-0.03
0.0009694,-0.045
0.00097,-0.05
0.0009706,-0.05
0.0009711,-0.035
0.0009717,-0.035
0.0009722,-0.02
0.0009728,-0.02
0.0009733,-0.035
0.0009739,-0.04
0.0009744,-0.055
0.000975,-0.055
0.0009756,-0.045
0.0009761,-0.04
0.0009767,-0.045
0.0009772,-0.05
0.0009778,-0.055
0.0009783,-0.055
0.0009789,-0.075
0.0009794,-0.075
0.00098,-0.07
0.0009806,-0.075
0.0009811,-0.075
0.0009817,-0.06
0.0009822,-0.055
0.0009828,-0.055
0.0009833,-0.05
0.0009839,-0.045
0.0009844,-0.05
0.000985,-0.06
0.0009856,-0.065
0.0009861,-0.08
0.0009867,-0.07
0.0009872,-0.06
0.0009878,-0.055
0.0009883,-0.035
0.0009889,-0.02
0.0009894,-0.025
0.00099,-0.045
0.0009906,-0.07
0.0009911,-0.07
0.0009917,-0.075
0.0009922,-0.055
0.0009928,-0.045
0.0009933,-0.02
0.0009939,-0.035
0.0009944,-0.025
0.000995,-0.025
0.0009956,-0.04
0.0009961,-0.055
0.0009967,-0.065
0.0009972,-0.07
0.0009978,-0.065
0.0009983,-0.045
0.0009989,-0.04
0.0009994,-0.04
0.001,-0.025
0.0010006,-0.01
0.0010011,-0.035
0.0010017,-0.045
0.0010022,-0.05
0.0010028,-0.065
0.0010033,-0.065
0.0010039,-0.05
0.0010044,-0.035
0.001005,-0.035
0.0010056,-0.02
0.0010061,-0.015
0.0010067,-0.03
0.0010072,-0.035
0.0010078,-0.045
0.0010083,-0.05
0.0010089,-0.05
0.0010094,-0.03
0.00101,-0.03
0.0010106,-0.03
0.0010111,-0.025
0.0010117,-0.01
0.0010122,-0.04
0.0010128,-0.035
0.0010133,-0.04
0.0010139,-0.05
0.0010144,-0.035
0.001015,-0.035
0.0010156,-0.015
0.0010161,-0.025
0.0010167,-0.015
0.0010172,-0.015
0.0010178,-0.025
0.0010183,-0.04
0.0010189,-0.04
0.0010194,-0.05
0.00102,-0.055
0.0010206,-0.04
0.0010211,-0.03
0.0010217,-0.025
0.0010222,-0.025
0.0010228,-0.03
0.0010233,-0.035
0.0010239,-0.06
0.0010244,-0.06
0.001025,-0.07
0.0010256,-0.06
0.0010261,-0.035
0.0010267,-0.03
0.0010272,-0.01
0.0010278,-0.025
0.0010283,-0.025
0.0010289,-0.04
0.0010294,-0.055
0.00103,-0.07
0.0010306,-0.075
0.0010311,-0.04
0.0010317,-0.045
0.0010322,-0.04
0.0010328,-0.045
0.0010333,-0.03
0.0010339,-0.035
0.0010344,-0.05
0.001035,-0.055
0.0010356,-0.065
0.0010361,-0.07
0.0010367,-0.065
0.0010372,-0.06
0.0010378,-0.05
0.0010383,-0.04
0.0010389,-0.03
0.0010394,-0.045
0.00104,-0.055
0.0010406,-0.05
0.0010411,-0.06
0.0010417,-0.07
0.0010422,-0.045
0.0010428,-0.04
0.0010433,-0.03
0.0010439,-0.025
0.0010444,-0.04
0.001045,-0.04
0.0010456,-0.055
0.0010461,-0.055
0.0010467,-0.065
0.0010472,-0.065
0.0010478,-0.065
0.0010483,-0.06
0.0010489,-0.025
0.0010494,-0.03
0.00105,-0.015
0.0010506,-0.04
0.0010511,-0.06
0.0010517,-0.065
0.0010522,-0.07
0.0010528,-0.075
0.0010533,-0.06
0.0010539,-0.05
0.0010544,-0.025
0.001055,-0.025
0.0010556,-0.025
0.0010561,-0.03
0.0010567,-0.045
0.0010572,-0.055
0.0010578,-0.06
0.0010583,-0.08
0.0010589,-0.075
0.0010594,-0.07
0.00106,-0.06
0.0010606,-0.035
0.0010611,-0.035
0.0010617,-0.055
0.0010622,-0.055
0.0010628,-0.065
0.0010633,-0.075
0.0010639,-0.075
0.0010644,-0.065
0.001065,-0.045
0.0010656,-0.035
0.0010661,-0.025
0.0010667,-0.035
0.0010672,-0.035
0.0010678,-0.04
0.0010683,-0.045
0.0010689,-0.06
0.0010694,-0.06
0.00107,-0.04
0.0010706,-0.035
0.0010711,-0.03
0.0010717,-0.02
0.0010722,-0.015
0.0010728,-0.03
0.0010733,-0.035
0.0010739,-0.04
0.0010744,-0.05
0.001075,-0.045
0.0010756,-0.05
0.0010761,-0.025
0.0010767,0.005
0.0010772,0.01
0.0010778,0.02
0.0010783,0.03
0.0010789,0.035
0.0010794,0.03
0.00108,0.035
0.0010806,0.025
0.0010811,0.04
0.0010817,0.045
0.0010822,0.055
0.0010828,0.065
0.0010833,0.075
0.0010839,0.065
0.0010844,0.055
0.001085,0.045
0.0010856,0.04
0.0010861,0.055
0.0010867,0.065
0.0010872,0.09
0.0010878,0.105
0.0010883,0.125
0.0010889,0.13
0.0010894,0.095
0.00109,0.09
0.0010906,0.1
0.0010911,0.09
0.0010917,0.095
0.0010922,0.1
0.0010928,0.11
0.0010933,0.125
0.0010939,0.135
0.0010944,0.145
0.001095,0.145
0.0010956,0.13
0.0010961,0.135
0.0010967,0.12
0.0010972,0.125
0.0010978,0.125
0.0010983,0.135
0.0010989,0.145
0.0010994,0.155
0.0011,0.17
0.0011006,0.16
0.0011011,0.165
0.0011017,0.165
0.0011022,0.155
0.0011028,0.155
0.0011033,0.16
0.0011039,0.155
0.0011044,0.165
0.001105,0.18
0.0011056,0.165
0.0011061,0.16
0.0011067,0.16
0.0011072,0.16
0.0011078,0.14
0.0011083,0.13
0.0011089,0.14
0.0011094,0.14
0.00111,0.135
0.0011106,0.135
0.0011111,0.13
0.0011117,0.11
0.0011122,0.11
0.0011128,0.095
0.0011133,0.09
0.0011139,0.095
0.0011144,0.105
0.001115,0.12
0.0011156,0.125
0.0011161,0.12
0.0011167,0.11
0.0011172,0.105
0.0011178,0.09
0.0011183,0.085
0.0011189,0.07
0.0011194,0.085
0.00112,0.105
0.0011206,0.1
0.0011211,0.105
0.0011217,0.1
0.0011222,0.095
0.0011228,0.08
0.0011233,0.07
0.0011239,0.075
0.0011244,0.055
0.001125,0.07
0.0011256,0.07
0.0011261,0.08
0.0011267,0.085
0.0011272,0.1
0.0011278,0.085
0.0011283,0.065
0.0011289,0.06
0.0011294,0.05
0.00113,0.05
0.0011306,0.055
0.0011311,0.07
0.0011317,0.08
0.0011322,0.085
0.0011328,0.085
0.0011333,0.07
0.0011339,0.065
0.0011344,0.065
0.001135,0.045
0.0011356,0.065
0.0011361,0.065
0.0011367,0.065
0.0011372,0.07
0.0011378,0.06
0.0011383,0.07
0.0011389,0.06
0.0011394,0.035
0.00114,0.03
0.0011406,0.04
0.0011411,0.055
0.0011417,0.085
0.0011422,0.13
0.0011428,0.185
0.0011433,0.235
0.0011439,0.29
0.0011444,0.33
0.001145,0.395
0.0011456,0.5
0.0011461,0.605
0.0011467,0.705
0.0011472,0.755
0.0011478,0.755
0.0011483,0.74
0.0011489,0.695
0.0011494,0.615
0.00115,0.515
0.0011506,0.43
0.0011511,0.325
0.0011517,0.19
0.0011522,0.07
0.0011528,-0.015
0.0011533,-0.045
0.0011539,-0.04
0.0011544,-0.02
0.001155,0.015
0.0011556,0.025
0.0011561,0.025
0.0011567,0.04
0.0011572,0.06
0.0011578,0.085
0.0011583,0.09
0.0011589,0.1
0.0011594,0.12
0.00116,0.11
0.0011606,0.09
0.0011611,0.075
0.0011617,0.07
0.0011622,0.065
0.0011628,0.07
0.0011633,0.07
0.0011639,0.085
0.0011644,0.09
0.001165,0.105
0.0011656,0.105
0.0011661,0.11
0.0011667,0.095
0.0011672,0.095
0.0011678,0.085
0.0011683,0.085
0.0011689,0.085
0.0011694,0.1
0.00117,0.11
0.0011706,0.12
0.0011711,0.13
0.0011717,0.11
0.0011722,0.09
0.0011728,0.075
0.0011733,0.07
0.0011739,0.07
0.0011744,0.075
0.001175,0.095
0.0011756,0.115
0.0011761,0.125
0.0011767,0.13
0.0011772,0.125
0.0011778,0.115
0.0011783,0.105
0.0011789,0.1
0.0011794,0.105
0.00118,0.11
0.0011806,0.12
0.0011811,0.125
0.0011817,0.125
0.0011822,0.13
0.0011828,0.13
0.0011833,0.105
0.0011839,0.105
0.0011844,0.12
0.001185,0.105
0.0011856,0.11
0.0011861,0.12
0.0011867,0.13
0.0011872,0.145
0.0011878,0.165
0.0011883,0.15
0.0011889,0.14
0.0011894,0.13
0.00119,0.125
0.0011906,0.13
0.0011911,0.13
0.0011917,0.14
0.0011922,0.14
0.0011928,0.145
0.0011933,0.165
0.0011939,0.17
0.0011944,0.16
0.001195,0.16
0.0011956,0.165
0.0011961,0.16
0.0011967,0.185
0.0011972,0.18
0.0011978,0.195
0.0011983,0.2
0.0011989,0.21
0.0011994,0.205
0.0012,0.2
0.0012006,0.2
0.0012011,0.2
0.0012017,0.2
0.0012022,0.215
0.0012028,0.225
0.0012033,0.25
0.0012039,0.26
0.0012044,0.27
0.001205,0.255
0.0012056,0.255
0.0012061,0.26
0.0012067,0.26
0.0012072,0.245
0.0012078,0.26
0.0012083,0.27
0.0012089,0.265
0.0012094,0.27
0.00121,0.255
0.0012106,0.265
0.0012111,0.26
0.0012117,0.245
0.0012122,0.24
0.0012128,0.235
0.0012133,0.24
0.0012139,0.255
0.0012144,0.235
0.001215,0.24
0.0012156,0.24
0.0012161,0.22
0.0012167,0.2
0.0012172,0.18
0.0012178,0.165
0.0012183,0.15
0.0012189,0.155
0.0012194,0.155
0.00122,0.15
0.0012206,0.135
0.0012211,0.12
0.0012217,0.09
0.0012222,0.085
0.0012228,0.07
0.0012233,0.05
0.0012239,0.04
0.0012244,0.045
0.001225,0.045
0.0012256,0.04
0.0012261,0.05
0.0012267,0.045
0.0012272,0.03
0.0012278,0.01
0.0012283,-0.005
0.0012289,-0.015
0.0012294,-0.025
0.00123,-0.015
0.0012306,-0.01
0.0012311,0
0.0012317,0.005
0.0012322,0.005
0.0012328,-0.02
0.0012333,-0.03
0.0012339,-0.045
0.0012344,-0.06
0.001235,-0.04
0.0012356,-0.04
0.0012361,-0.02
0.0012367,-0.015
0.0012372,-0.015
0.0012378,-0.01
0.0012383,-0.02
0.0012389,-0.05
0.0012394,-0.055
0.00124,-0.075
0.0012406,-0.06
0.0012411,-0.055
0.0012417,-0.035
0.0012422,-0.03
0.0012428,-0.03
0.0012433,-0.025
0.0012439,-0.04
0.0012444,-0.06
0.001245,-0.055
0.0012456,-0.055
0.0012461,-0.065
0.0012467,-0.06
0.0012472,-0.05
0.0012478,-0.03
0.0012483,-0.02
0.0012489,-0.02
0.0012494,-0.03
0.00125,-0.04
0.0012506,-0.05
0.0012511,-0.065
0.0012517,-0.07
0.0012522,-0.055
0.0012528,-0.035
0.0012533,-0.025
0.0012539,-0.02
0.0012544,-0.015
0.001255,-0.03
0.0012556,-0.045
0.0012561,-0.045
0.0012567,-0.05
0.0012572,-0.04
0.0012578,-0.025
0.0012583,-0.015
0.0012589,-0.015
0.0012594,0
0.00126,-0.01
0.0012606,-0.035
0.0012611,-0.055
0.0012617,-0.04
0.0012622,-0.065
0.0012628,-0.04
0.0012633,-0.05
0.0012639,-0.035
0.0012644,-0.01
0.001265,0.005
0.0012656,-0.02
0.0012661,-0.04
0.0012667,-0.04
0.0012672,-0.04
0.0012678,-0.065
0.0012683,-0.045
0.0012689,-0.035
0.0012694,-0.025
0.00127,-0.025
0.0012706,-0.01
0.0012711,-0.015
0.0012717,-0.035
0.0012722,-0.035
0.0012728,-0.045
0.0012733,-0.05
0.0012739,-0.05
0.0012744,-0.04
0.001275,-0.04
0.0012756,-0.045
0.0012761,-0.025
0.0012767,-0.04
0.0012772,-0.045
0.0012778,-0.055
0.0012783,-0.07
0.0012789,-0.07
0.0012794,-0.06
0.00128,-0.045
0.0012806,-0.035
0.0012811,-0.03
0.0012817,-0.025
0.0012822,-0.025
0.0012828,-0.035
0.0012833,-0.05
0.0012839,-0.075
0.0012844,-0.1
0.001285,-0.07
0.0012856,-0.05
0.0012861,-0.05
0.0012867,-0.04
0.0012872,-0.035
0.0012878,-0.04
0.0012883,-0.05
0.0012889,-0.06
0.0012894,-0.075
0.00129,-0.07
0.0012906,-0.05
0.0012911,-0.05
0.0012917,-0.05
0.0012922,-0.04
0.0012928,-0.035
0.0012933,-0.045
0.0012939,-0.06
0.0012944,-0.07
0.001295,-0.075
0.0012956,-0.08
0.0012961,-0.075
0.0012967,-0.04
0.0012972,-0.045
0.0012978,-0.04
0.0012983,-0.035
0.0012989,-0.055
0.0012994,-0.055
0.0013,-0.065
0.0013006,-0.075
0.0013011,-0.075
0.0013017,-0.06
0.0013022,-0.065
0.0013028,-0.06
0.0013033,-0.055
0.0013039,-0.045
0.0013044,-0.045
0.001305,-0.06
0.0013056,-0.08
0.0013061,-0.07
0.0013067,-0.075
0.0013072,-0.06
0.0013078,-0.055
0.0013083,-0.065
0.0013089,-0.045
0.0013094,-0.045
0.00131,-0.05
0.0013106,-0.065
0.0013111,-0.065
0.0013117,-0.075
0.0013122,-0.08
0.0013128,-0.065
0.0013133,-0.055
0.0013139,-0.05
0.0013144,-0.05
0.001315,-0.04
0.0013156,-0.06
0.0013161,-0.065
0.0013167,-0.075
0.0013172,-0.085
0.0013178,-0.08
0.0013183,-0.065
0.0013189,-0.06
0.0013194,-0.055
0.00132,-0.05
0.0013206,-0.035
0.0013211,-0.065
0.0013217,-0.07
0.0013222,-0.055
0.0013228,-0.085
0.0013233,-0.07
0.0013239,-0.065
0.0013244,-0.045
0.001325,-0.06
0.0013256,-0.05
0.0013261,-0.045
0.0013267,-0.07
0.0013272,-0.08
0.0013278,-0.075
0.0013283,-0.085
0.0013289,-0.09
0.0013294,-0.07
0.00133,-0.05
0.0013306,-0.055
0.0013311,-0.045
0.0013317,-0.04
0.0013322,-0.05
0.0013328,-0.075
0.0013333,-0.075
0.0013339,-0.09
0.0013344,-0.09
0.001335,-0.075
0.0013356,-0.07
0.0013361,-0.06
0.0013367,-0.045
0.0013372,-0.05
0.0013378,-0.065
0.0013383,-0.08
0.0013389,-0.075
0.0013394,-0.075
0.00134,-0.065
0.0013406,-0.065
0.0013411,-0.065
0.0013417,-0.065
0.0013422,-0.05
0.0013428,-0.065
0.0013433,-0.075
0.0013439,-0.075
0.0013444,-0.075
0.001345,-0.085
0.0013456,-0.075
0.0013461,-0.06
0.0013467,-0.04
0.0013472,-0.04
0.0013478,-0.03
0.0013483,-0.03
0.0013489,-0.045
0.0013494,-0.055
0.00135,-0.055
0.0013506,-0.05
0.0013511,-0.045
0.0013517,-0.04
0.0013522,-0.035
0.0013528,-0.015
0.0013533,0
0.0013539,-0.005
0.0013544,-0.015
0.001355,-0.02
0.0013556,-0.02
0.0013561,-0.015
0.0013567,0
0.0013572,-0.01
0.0013578,0.005
0.0013583,0.01
0.0013589,0.01
0.0013594,-0.005
0.00136,-0.01
0.0013606,-0.015
0.0013611,-0.015
0.0013617,-0.025
0.0013622,-0.02
0.0013628,-0.01
0.0013633,0.01
0.0013639,0
0.0013644,-0.005
0.001365,-0.03
0.0013656,-0.045
0.0013661,-0.06
0.0013667,-0.065
0.0013672,-0.08
0.0013678,-0.08
0.0013683,-0.07
0.0013689,-0.065
0.0013694,-0.05
0.00137,-0.045
0.0013706,-0.06
0.0013711,-0.065
0.0013717,-0.075
0.0013722,-0.09
0.0013728,-0.105
0.0013733,-0.085
0.0013739,-0.065
0.0013744,-0.065
0.001375,-0.07
0.0013756,-0.055
0.0013761,-0.06
0.0013767,-0.075
0.0013772,-0.095
0.0013778,-0.105
0.0013783,-0.12
0.0013789,-0.11
0.0013794,-0.075
0.00138,-0.08
0.0013806,-0.07
0.0013811,-0.06
0.0013817,-0.08
0.0013822,-0.095
0.0013828,-0.11
0.0013833,-0.1
0.0013839,-0.09
0.0013844,-0.095
0.001385,-0.085
0.0013856,-0.075
0.0013861,-0.075
0.0013867,-0.065
0.0013872,-0.08
0.0013878,-0.1
0.0013883,-0.1
0.0013889,-0.1
0.0013894,-0.1
0.00139,-0.09
0.0013906,-0.09
0.0013911,-0.08
0.0013917,-0.095
0.0013922,-0.09
0.0013928,-0.1
0.0013933,-0.105
0.0013939,-0.125
0.0013944,-0.145
0.001395,-0.145
0.0013956,-0.115
0.0013961,-0.075
0.0013967,-0.02
0.0013972,0.035
0.0013978,0.09
0.0013983,0.12
0.0013989,0.18
0.0013994,0.245
0.0014,0.325
0.0014006,0.425
0.0014011,0.555
0.0014017,0.64
0.0014022,0.65
0.0014028,0.645
0.0014033,0.595
0.0014039,0.52
0.0014044,0.425
0.001405,0.335
0.0014056,0.245
0.0014061,0.13
0.0014067,0.02
0.0014072,-0.09
0.0014078,-0.165
0.0014083,-0.17
0.0014089,-0.145
0.0014094,-0.125
0.00141,-0.125
0.0014106,-0.115
0.0014111,-0.105
0.0014117,-0.095
0.0014122,-0.07
0.0014128,-0.06
0.0014133,-0.04
0.0014139,-0.04
0.0014144,-0.035
0.001415,-0.055
0.0014156,-0.07
0.0014161,-0.085
0.0014167,-0.085
0.0014172,-0.08
0.0014178,-0.065
0.0014183,-0.05
0.0014189,-0.035
0.0014194,-0.025
0.00142,-0.025
0.0014206,-0.03
0.0014211,-0.025
0.0014217,-0.06
0.0014222,-0.075
0.0014228,-0.07
0.0014233,-0.06
0.0014239,-0.05
0.0014244,-0.05
0.001425,-0.03
0.0014256,-0.03
0.0014261,-0.04
0.0014267,-0.05
0.0014272,-0.05
0.0014278,-0.06
0.0014283,-0.05
0.0014289,-0.045
0.0014294,-0.03
0.00143,-0.015
0.0014306,-0.01
0.0014311,-0.03
0.0014317,-0.035
0.0014322,-0.035
0.0014328,-0.04
0.0014333,-0.04
0.0014339,-0.03
0.0014344,-0.015
0.001435,-0.01
0.0014356,-0.005
0.0014361,0.01
0.0014367,0.005
0.0014372,-0.02
0.0014378,-0.03
0.0014383,-0.04
0.0014389,-0.045
0.0014394,-0.045
0.00144,-0.02
0.0014406,-0.01
0.0014411,0.005
0.0014417,0.02
0.0014422,0.015
0.0014428,0
0.0014433,-0.005
0.0014439,-0.015
0.0014444,-0.01
0.001445,0.005
0.0014456,0.015
0.0014461,0.02
0.0014467,0.03
0.0014472,0.05
0.0014478,0.035
0.0014483,0.02
0.0014489,0.025
0.0014494,0.03
0.00145,0.03
0.0014506,0.05
0.0014511,0.06
0.0014517,0.08
0.0014522,0.085
0.0014528,0.11
0.0014533,0.1
0.0014539,0.08
0.0014544,0.075
0.001455,0.07
0.0014556,0.08
0.0014561,0.095
0.0014567,0.115
0.0014572,0.125
0.0014578,0.15
0.0014583,0.16
0.0014589,0.16
0.0014594,0.16
0.00146,0.145
0.0014606,0.145
0.0014611,0.135
0.0014617,0.16
0.0014622,0.175
0.0014628,0.185
0.0014633,0.19
0.0014639,0.195
0.0014644,0.19
0.001465,0.185
0.0014656,0.175
0.0014661,0.17
0.0014667,0.165
0.0014672,0.18
0.0014678,0.175
0.0014683,0.175
0.0014689,0.17
0.0014694,0.175
0.00147,0.155
0.0014706,0.145
0.0014711,0.13
0.0014717,0.115
0.0014722,0.105
0.0014728,0.11
0.0014733,0.115
0.0014739,0.11
0.0014744,0.11
0.001475,0.105
0.0014756,0.08
0.0014761,0.065
0.0014767,0.045
0.0014772,0.015
0.0014778,0.01
0.0014783,0.015
0.0014789,0.015
0.0014794,0.015
0.00148,0
0.0014806,0.015
0.0014811,0.015
0.0014817,-0.02
0.0014822,-0.035
0.0014828,-0.045
0.0014833,-0.04
0.0014839,-0.04
0.0014844,-0.035
0.001485,-0.04
0.0014856,-0.025
0.0014861,-0.02
0.0014867,-0.045
0.0014872,-0.05
0.0014878,-0.065
0.0014883,-0.07
0.0014889,-0.065
0.0014894,-0.045
0.00149,-0.045
0.0014906,-0.055
0.0014911,-0.045
0.0014917,-0.045
0.0014922,-0.055
0.0014928,-0.07
0.0014933,-0.08
0.0014939,-0.085
0.0014944,-0.085
0.001495,-0.085
0.0014956,-0.06
0.0014961,-0.065
0.0014967,-0.045
0.0014972,-0.05
0.0014978,-0.06
0.0014983,-0.075
0.0014989,-0.09
0.0014994,-0.085
0.0015,-0.07
0.0015006,-0.065
0.0015011,-0.06
0.0015017,-0.04
0.0015022,-0.045
0.0015028,-0.05
0.0015033,-0.055
0.0015039,-0.06
0.0015044,-0.07
0.001505,-0.08
0.0015056,-0.075
0.0015061,-0.06
0.0015067,-0.065
0.0015072,-0.05
0.0015078,-0.03
0.0015083,-0.04
0.0015089,-0.055
0.0015094,-0.055
0.00151,-0.055
0.0015106,-0.06
0.0015111,-0.06
0.0015117,-0.045
0.0015122,-0.025
0.0015128,-0.02
0.0015133,-0.01
0.0015139,-0.025
0.0015144,-0.055
0.001515,-0.06
0.0015156,-0.065
0.0015161,-0.065
0.0015167,-0.055
0.0015172,-0.045
0.0015178,-0.035
0.0015183,-0.025
0.0015189,-0.025
0.0015194,-0.035
0.00152,-0.05
0.0015206,-0.045
0.0015211,-0.05
0.0015217,-0.055
0.0015222,-0.05
0.0015228,-0.04
0.0015233,-0.025
0.0015239,-0.02
0.0015244,-0.015
0.001525,-0.02
0.0015256,-0.035
0.0015261,-0.035
0.0015267,-0.045
0.0015272,-0.055
0.0015278,-0.045
0.0015283,-0.035
0.0015289,-0.035
0.0015294,-0.03
0.00153,-0.025
0.0015306,-0.03
0.0015311,-0.045
0.0015317,-0.04
0.0015322,-0.05
0.0015328,-0.055
0.0015333,-0.06
0.0015339,-0.04
0.0015344,-0.03
0.001535,-0.03
0.0015356,-0.03
0.0015361,-0.05
0.0015367,-0.055
0.0015372,-0.06
0.0015378,-0.06
0.0015383,-0.07
0.0015389,-0.06
0.0015394,-0.05
0.00154,-0.045
0.0015406,-0.04
0.0015411,-0.03
0.0015417,-0.04
0.0015422,-0.06
0.0015428,-0.06
0.0015433,-0.065
0.0015439,-0.07
0.0015444,-0.065
0.001545,-0.055
0.0015456,-0.045
0.0015461,-0.045
0.0015467,-0.045
0.0015472,-0.055
0.0015478,-0.05
0.0015483,-0.055
0.0015489,-0.07
0.0015494,-0.07
0.00155,-0.065
0.0015506,-0.06
0.0015511,-0.045
0.0015517,-0.04
0.0015522,-0.05
0.0015528,-0.055
0.0015533,-0.05
0.0015539,-0.06
0.0015544,-0.07
0.001555,-0.07
0.0015556,-0.06
0.0015561,-0.055
0.0015567,-0.055
0.0015572,-0.045
0.0015578,-0.055
0.0015583,-0.065
0.0015589,-0.07
0.0015594,-0.065
0.00156,-0.075
0.0015606,-0.085
0.0015611,-0.07
0.0015617,-0.06
0.0015622,-0.05
0.0015628,-0.05
0.0015633,-0.045
0.0015639,-0.055
0.0015644,-0.065
0.001565,-0.055
0.0015656,-0.065
0.0015661,-0.07
0.0015667,-0.055
0.0015672,-0.055
0.0015678,-0.06
0.0015683,-0.04
0.0015689,-0.03
0.0015694,-0.05
0.00157,-0.065
0.0015706,-0.085
0.0015711,-0.065
0.0015717,-0.07
0.0015722,-0.06
0.0015728,-0.04
0.0015733,-0.045
0.0015739,-0.045
0.0015744,-0.04
0.001575,-0.055
0.0015756,-0.065
0.0015761,-0.08
0.0015767,-0.09
0.0015772,-0.08
0.0015778,-0.065
0.0015783,-0.05
0.0015789,-0.05
0.0015794,-0.05
0.00158,-0.055
0.0015806,-0.07
0.0015811,-0.06
0.0015817,-0.065
0.0015822,-0.065
0.0015828,-0.08
0.0015833,-0.065
0.0015839,-0.055
0.0015844,-0.045
0.001585,-0.045
0.0015856,-0.045
0.0015861,-0.055
0.0015867,-0.065
0.0015872,-0.065
0.0015878,-0.075
0.0015883,-0.075
0.0015889,-0.065
0.0015894,-0.04
0.00159,-0.04
0.0015906,-0.035
0.0015911,-0.04
0.0015917,-0.045
0.0015922,-0.06
0.0015928,-0.055
0.0015933,-0.075
0.0015939,-0.07
0.0015944,-0.055
0.001595,-0.035
0.0015956,-0.045
0.0015961,-0.045
0.0015967,-0.055
0.0015972,-0.065
0.0015978,-0.07
0.0015983,-0.075
0.0015989,-0.09
0.0015994,-0.07
0.0016,-0.055
0.0016006,-0.05
0.0016011,-0.04
0.0016017,-0.04
0.0016022,-0.04
0.0016028,-0.065
0.0016033,-0.06
0.0016039,-0.085
0.0016044,-0.075
0.001605,-0.075
0.0016056,-0.05
0.0016061,-0.03
0.0016067,-0.01
0.0016072,0
0.0016078,-0.015
0.0016083,-0.025
0.0016089,-0.04
0.0016094,-0.05
0.00161,-0.045
0.0016106,-0.035
0.0016111,-0.02
0.0016117,-0.01
0.0016122,0
0.0016128,0.02
0.0016133,-0.01
0.0016139,-0.02
0.0016144,-0.01
0.001615,-0.01
0.0016156,-0.015
0.0016161,0
0.0016167,0.025
0.0016172,0.03
0.0016178,0.04
0.0016183,0.04
0.0016189,0.05
0.0016194,0.055
0.00162,0.07
0.0016206,0.07
0.0016211,0.075
0.0016217,0.085
0.0016222,0.105
0.0016228,0.12
0.0016233,0.13
0.0016239,0.135
0.0016244,0.115
0.001625,0.11
0.0016256,0.1
0.0016261,0.085
0.0016267,0.08
0.0016272,0.1
0.0016278,0.1
0.0016283,0.11
0.0016289,0.105
0.0016294,0.115
0.00163,0.105
0.0016306,0.105
0.0016311,0.09
0.0016317,0.095
0.0016322,0.08
0.0016328,0.085
0.0016333,0.105
0.0016339,0.105
0.0016344,0.12
0.001635,0.12
0.0016356,0.11
0.0016361,0.09
0.0016367,0.09
0.0016372,0.08
0.0016378,0.065
0.0016383,0.075
0.0016389,0.09
0.0016394,0.095
0.00164,0.095
0.0016406,0.12
0.0016411,0.1
0.0016417,0.09
0.0016422,0.1
0.0016428,0.085
0.0016433,0.07
0.0016439,0.07
0.0016444,0.085
0.001645,0.1
0.0016456,0.1
0.0016461,0.09
0.0016467,0.1
0.0016472,0.085
0.0016478,0.085
0.0016483,0.07
0.0016489,0.07
0.0016494,0.075
0.00165,0.075
0.0016506,0.07
0.0016511,0.085
0.0016517,0.07
0.0016522,0.07
0.0016528,0.055
0.0016533,0.045
0.0016539,0.03
0.0016544,0.03
0.001655,0.05
0.0016556,0.08
0.0016561,0.14
0.0016567,0.215
0.0016572,0.26
0.0016578,0.305
0.0016583,0.365
0.0016589,0.415
0.0016594,0.495
0.00166,0.595
0.0016606,0.73
0.0016611,0.85
0.0016617,0.865
0.0016622,0.86
0.0016628,0.81
0.0016633,0.73
0.0016639,0.635
0.0016644,0.545
0.001665,0.425
0.0016656,0.315
0.0016661,0.205
0.0016667,0.09
0.0016672,0.01
0.0016678,0.01
0.0016683,0.04
0.0016689,0.03
0.0016694,0.04
0.00167,0.05
0.0016706,0.07
0.0016711,0.09
0.0016717,0.115
0.0016722,0.12
0.0016728,0.13
0.0016733,0.13
0.0016739,0.12
0.0016744,0.11
0.001675,0.105
0.0016756,0.095
0.0016761,0.085
0.0016767,0.09
0.0016772,0.1
0.0016778,0.105
0.0016783,0.11
0.0016789,0.125
0.0016794,0.125
0.00168,0.11
0.0016806,0.105
0.0016811,0.105
0.0016817,0.085
0.0016822,0.09
0.0016828,0.105
0.0016833,0.105
0.0016839,0.11
0.0016844,0.115
0.001685,0.12
0.0016856,0.105
0.0016861,0.095
0.0016867,0.095
0.0016872,0.085
0.0016878,0.095
0.0016883,0.11
0.0016889,0.12
0.0016894,0.125
0.00169,0.135
0.0016906,0.145
0.0016911,0.13
0.0016917,0.11
0.0016922,0.105
0.0016928,0.11
0.0016933,0.115
0.0016939,0.13
0.0016944,0.125
0.001695,0.145
0.0016956,0.16
0.0016961,0.15
0.0016967,0.135
0.0016972,0.12
0.0016978,0.12
0.0016983,0.12
0.0016989,0.12
0.0016994,0.135
0.0017,0.145
0.0017006,0.165
0.0017011,0.175
0.0017017,0.165
0.0017022,0.16
0.0017028,0.165
0.0017033,0.165
0.0017039,0.15
0.0017044,0.145
0.001705,0.155
0.0017056,0.155
0.0017061,0.155
0.0017067,0.16
0.0017072,0.145
0.0017078,0.165
0.0017083,0.175
0.0017089,0.165
0.0017094,0.155
0.00171,0.175
0.0017106,0.19
0.0017111,0.2
0.0017117,0.225
0.0017122,0.22
0.0017128,0.23
0.0017133,0.23
0.0017139,0.24
0.0017144,0.23
0.001715,0.225
0.0017156,0.245
0.0017161,0.255
0.0017167,0.26
0.0017172,0.29
0.0017178,0.285
0.0017183,0.27
0.0017189,0.265
0.0017194,0.295
0.00172,0.315
0.0017206,0.3
0.0017211,0.3
0.0017217,0.3
0.0017222,0.31
0.0017228,0.325
0.0017233,0.32
0.0017239,0.325
0.0017244,0.315
0.001725,0.315
0.0017256,0.305
0.0017261,0.3
0.0017267,0.305
0.0017272,0.315
0.0017278,0.31
0.0017283,0.31
0.0017289,0.305
0.0017294,0.295
0.00173,0.285
0.0017306,0.27
0.0017311,0.24
0.0017317,0.225
0.0017322,0.22
0.0017328,0.22
0.0017333,0.22
0.0017339,0.21
0.0017344,0.195
0.001735,0.165
0.0017356,0.15
0.0017361,0.14
0.0017367,0.135
0.0017372,0.1
0.0017378,0.1
0.0017383,0.095
0.0017389,0.12
0.0017394,0.105
0.00174,0.1
0.0017406,0.08
0.0017411,0.05
0.0017417,0.035
0.0017422,0.025
0.0017428,0.015
0.0017433,0.005
0.0017439,0.02
0.0017444,0.02
0.001745,0.02
0.0017456,0.03
0.0017461,0.015
0.0017467,-0.01
0.0017472,-0.035
0.0017478,-0.03
0.0017483,-0.02
0.0017489,-0.015
0.0017494,-0.01
0.00175,0
0.0017506,0.005
0.0017511,0.005
0.0017517,-0.02
0.0017522,-0.03
0.0017528,-0.045
0.0017533,-0.04
0.0017539,-0.035
0.0017544,-0.03
0.001755,-0.03
0.0017556,-0.015
0.0017561,-0.015
0.0017567,-0.01
0.0017572,-0.035
0.0017578,-0.045
0.0017583,-0.045
0.0017589,-0.055
0.0017594,-0.055
0.00176,-0.03
0.0017606,-0.025
0.0017611,-0.025
0.0017617,-0.03
0.0017622,-0.04
0.0017628,-0.055
0.0017633,-0.065
0.0017639,-0.07
0.0017644,-0.075
0.001765,-0.07
0.0017656,-0.055
0.0017661,-0.035
0.0017667,-0.03
0.0017672,-0.025
0.0017678,-0.04
0.0017683,-0.055
0.0017689,-0.07
0.0017694,-0.09
0.00177,-0.085
0.0017706,-0.065
0.0017711,-0.06
0.0017717,-0.045
0.0017722,-0.045
0.0017728,-0.03
0.0017733,-0.04
0.0017739,-0.055
0.0017744,-0.06
0.001775,-0.06
0.0017756,-0.07
0.0017761,-0.055
0.0017767,-0.05
0.0017772,-0.035
0.0017778,-0.03
0.0017783,-0.025
0.0017789,-0.03
0.0017794,-0.045
0.00178,-0.05
0.0017806,-0.06
0.0017811,-0.065
0.0017817,-0.055
0.0017822,-0.045
0.0017828,-0.035
0.0017833,-0.035
0.0017839,-0.03
0.0017844,-0.05
0.001785,-0.05
0.0017856,-0.045
0.0017861,-0.05
0.0017867,-0.055
0.0017872,-0.04
0.0017878,-0.03
0.0017883,-0.045
0.0017889,-0.04
0.0017894,-0.055
0.00179,-0.075
0.0017906,-0.095
0.0017911,-0.1
0.0017917,-0.095
0.0017922,-0.09
0.0017928,-0.08
0.0017933,-0.08
0.0017939,-0.05
0.0017944,-0.045
0.001795,-0.05
0.0017956,-0.05
0.0017961,-0.07
0.0017967,-0.08
0.0017972,-0.085
0.0017978,-0.095
0.0017983,-0.075
0.0017989,-0.065
0.0017994,-0.05
0.0018,-0.045
0.0018006,-0.05
0.0018011,-0.055
0.0018017,-0.075
0.0018022,-0.08
0.0018028,-0.09
0.0018033,-0.09
0.0018039,-0.08
0.0018044,-0.08
0.001805,-0.075
0.0018056,-0.075
0.0018061,-0.06
0.0018067,-0.075
0.0018072,-0.09
0.0018078,-0.09
0.0018083,-0.085
0.0018089,-0.095
0.0018094,-0.095
0.00181,-0.08
0.0018106,-0.085
0.0018111,-0.09
0.0018117,-0.08
0.0018122,-0.085
0.0018128,-0.1
0.0018133,-0.13
0.0018139,-0.115
0.0018144,-0.115
0.001815,-0.095
0.0018156,-0.09
0.0018161,-0.09
0.0018167,-0.08
0.0018172,-0.08
0.0018178,-0.085
0.0018183,-0.08
0.0018189,-0.105
0.0018194,-0.115
0.00182,-0.115
0.0018206,-0.11
0.0018211,-0.095
0.0018217,-0.09
0.0018222,-0.08
0.0018228,-0.08
0.0018233,-0.085
0.0018239,-0.095
0.0018244,-0.1
0.001825,-0.115
0.0018256,-0.12
0.0018261,-0.11
0.0018267,-0.115
0.0018272,-0.095
0.0018278,-0.08
0.0018283,-0.08
0.0018289,-0.085
0.0018294,-0.1
0.00183,-0.115
0.0018306,-0.105
0.0018311,-0.115
0.0018317,-0.11
0.0018322,-0.115
0.0018328,-0.1
0.0018333,-0.1
0.0018339,-0.095
0.0018344,-0.095
0.001835,-0.11
0.0018356,-0.11
0.0018361,-0.12
0.0018367,-0.105
0.0018372,-0.085
0.0018378,-0.09
0.0018383,-0.08
0.0018389,-0.095
0.0018394,-0.095
0.00184,-0.1
0.0018406,-0.125
0.0018411,-0.12
0.0018417,-0.125
0.0018422,-0.1
0.0018428,-0.09
0.0018433,-0.105
0.0018439,-0.105
0.0018444,-0.085
0.001845,-0.08
0.0018456,-0.09
0.0018461,-0.11
0.0018467,-0.1
0.0018472,-0.105
0.0018478,-0.12
0.0018483,-0.1
0.0018489,-0.095
0.0018494,-0.085
0.00185,-0.085
0.0018506,-0.085
0.0018511,-0.095
0.0018517,-0.11
0.0018522,-0.11
0.0018528,-0.115
0.0018533,-0.11
0.0018539,-0.075
0.0018544,-0.07
0.001855,-0.065
0.0018556,-0.055
0.0018561,-0.045
0.0018567,-0.07
0.0018572,-0.08
0.0018578,-0.08
0.0018583,-0.08
0.0018589,-0.085
0.0018594,-0.08
0.00186,-0.07
0.0018606,-0.07
0.0018611,-0.055
0.0018617,-0.045
0.0018622,-0.055
0.0018628,-0.065
0.0018633,-0.065
0.0018639,-0.065
0.0018644,-0.045
0.001865,-0.05
0.0018656,-0.025
0.0018661,-0.04
0.0018667,-0.01
0.0018672,-0.035
0.0018678,-0.04
0.0018683,-0.05
0.0018689,-0.055
0.0018694,-0.065
0.00187,-0.055
0.0018706,-0.045
0.0018711,-0.045
0.0018717,-0.05
0.0018722,-0.035
0.0018728,-0.075
0.0018733,-0.095
0.0018739,-0.095
0.0018744,-0.1
0.001875,-0.115
0.0018756,-0.125
0.0018761,-0.11
0.0018767,-0.08
0.0018772,-0.105
0.0018778,-0.11
0.0018783,-0.115
0.0018789,-0.115
0.0018794,-0.11
0.00188,-0.11
0.0018806,-0.13
0.0018811,-0.12
0.0018817,-0.1
0.0018822,-0.12
0.0018828,-0.095
0.0018833,-0.095
0.0018839,-0.11
0.0018844,-0.11
0.001885,-0.115
0.0018856,-0.125
0.0018861,-0.135
0.0018867,-0.135
0.0018872,-0.115
0.0018878,-0.11
0.0018883,-0.115
0.0018889,-0.105
0.0018894,-0.125
0.00189,-0.135
0.0018906,-0.13
0.0018911,-0.13
0.0018917,-0.135
0.0018922,-0.13
0.0018928,-0.11
0.0018933,-0.105
0.0018939,-0.1
0.0018944,-0.11
0.001895,-0.115
0.0018956,-0.135
0.0018961,-0.135
0.0018967,-0.135
0.0018972,-0.135
0.0018978,-0.155
0.0018983,-0.145
0.0018989,-0.13
0.0018994,-0.13
0.0019,-0.14
0.0019006,-0.16
0.0019011,-0.185
0.0019017,-0.175
0.0019022,-0.165
0.0019028,-0.125
0.0019033,-0.06
0.0019039,-0.005
0.0019044,0.045
0.001905,0.105
0.0019056,0.18
0.0019061,0.245
0.0019067,0.33
0.0019072,0.435
0.0019078,0.515
0.0019083,0.555
0.0019089,0.555
0.0019094,0.525
0.00191,0.48
0.0019106,0.415
0.0019111,0.36
0.0019117,0.255
0.0019122,0.135
0.0019128,-0.01
0.0019133,-0.115
0.0019139,-0.195
0.0019144,-0.215
0.001915,-0.215
0.0019156,-0.19
0.0019161,-0.165
0.0019167,-0.16
0.0019172,-0.15
0.0019178,-0.125
0.0019183,-0.105
0.0019189,-0.11
0.0019194,-0.09
0.00192,-0.09
0.0019206,-0.08
0.0019211,-0.08
0.0019217,-0.08
0.0019222,-0.085
0.0019228,-0.09
0.0019233,-0.105
0.0019239,-0.115
0.0019244,-0.115
0.001925,-0.115
0.0019256,-0.095
0.0019261,-0.095
0.0019267,-0.095
0.0019272,-0.075
0.0019278,-0.085
0.0019283,-0.095
0.0019289,-0.095
0.0019294,-0.09
0.00193,-0.105
0.0019306,-0.09
0.0019311,-0.065
0.0019317,-0.075
0.0019322,-0.075
0.0019328,-0.065
0.0019333,-0.06
0.0019339,-0.07
0.0019344,-0.09
0.001935,-0.095
0.0019356,-0.1
0.0019361,-0.09
0.0019367,-0.065
0.0019372,-0.06
0.0019378,-0.055
0.0019383,-0.03
0.0019389,-0.055
0.0019394,-0.07
0.00194,-0.07
0.0019406,-0.075
0.0019411,-0.07
0.0019417,-0.07
0.0019422,-0.06
0.0019428,-0.055
0.0019433,-0.05
0.0019439,-0.04
0.0019444,-0.055
0.001945,-0.05
0.0019456,-0.045
0.0019461,-0.055
0.0019467,-0.06
0.0019472,-0.04
0.0019478,-0.03
0.0019483,-0.03
0.0019489,-0.02
0.0019494,-0.02
0.00195,-0.035
0.0019506,-0.035
0.0019511,-0.035
0.0019517,-0.035
0.0019522,-0.04
0.0019528,-0.035
0.0019533,-0.005
0.0019539,0.02
0.0019544,0.02
0.001955,0.02
0.0019556,0.01
0.0019561,0.015
0.0019567,0.01
0.0019572,0.01
0.0019578,0.015
0.0019583,0.02
0.0019589,0.025
0.0019594,0.02
0.00196,0.035
0.0019606,0.055
0.0019611,0.065
0.0019617,0.055
0.0019622,0.06
0.0019628,0.06
0.0019633,0.07
0.0019639,0.1
0.0019644,0.115
0.001965,0.115
0.0019656,0.105
0.0019661,0.125
0.0019667,0.125
0.0019672,0.115
0.0019678,0.105
0.0019683,0.115
0.0019689,0.11
0.0019694,0.125
0.00197,0.125
0.0019706,0.13
0.0019711,0.145
0.0019717,0.15
0.0019722,0.135
0.0019728,0.13
0.0019733,0.13
0.0019739,0.115
0.0019744,0.11
0.001975,0.13
0.0019756,0.135
0.0019761,0.135
0.0019767,0.13
0.0019772,0.13
0.0019778,0.115
0.0019783,0.085
0.0019789,0.075
0.0019794,0.065
0.00198,0.06
0.0019806,0.055
0.0019811,0.05
0.0019817,0.03
0.0019822,0.04
0.0019828,0.03
0.0019833,0.02
0.0019839,-0.015
0.0019844,-0.025
0.001985,-0.03
0.0019856,-0.03
0.0019861,-0.03
0.0019867,-0.03
0.0019872,-0.03
0.0019878,-0.02
0.0019883,-0.04
0.0019889,-0.05
0.0019894,-0.075
0.00199,-0.085
0.0019906,-0.08
0.0019911,-0.08
0.0019917,-0.065
0.0019922,-0.07
0.0019928,-0.065
0.0019933,-0.055
0.0019939,-0.075
0.0019944,-0.09
0.001995,-0.115
0.0019956,-0.1
0.0019961,-0.11
0.0019967,-0.115
0.0019972,-0.105
0.0019978,-0.095
0.0019983,-0.09
0.0019989,-0.075
0.0019994,-0.06
0.002,-0.095
0.0020006,-0.1
0.0020011,-0.125
0.0020017,-0.115
0.0020022,-0.115
0.0020028,-0.1
0.0020033,-0.1
0.0020039,-0.1
0.0020044,-0.09
0.002005,-0.09
0.0020056,-0.1
0.0020061,-0.11
0.0020067,-0.105
0.0020072,-0.115
0.0020078,-0.105
0.0020083,-0.09
0.0020089,-0.08
0.0020094,-0.075
0.00201,-0.075
0.0020106,-0.095
0.0020111,-0.1
0.0020117,-0.105
0.0020122,-0.12
0.0020128,-0.12
0.0020133,-0.115
0.0020139,-0.095
0.0020144,-0.095
0.002015,-0.09
0.0020156,-0.07
0.0020161,-0.095
0.0020167,-0.095
0.0020172,-0.09
0.0020178,-0.105
0.0020183,-0.11
0.0020189,-0.09
0.0020194,-0.07
0.00202,-0.07
0.0020206,-0.07
0.0020211,-0.07
0.0020217,-0.085
0.0020222,-0.1
0.0020228,-0.1
0.0020233,-0.1
0.0020239,-0.11
0.0020244,-0.11
0.002025,-0.09
0.0020256,-0.09
0.0020261,-0.07
0.0020267,-0.07
0.0020272,-0.075
0.0020278,-0.095
0.0020283,-0.11
0.0020289,-0.1
0.0020294,-0.1
0.00203,-0.095
0.0020306,-0.095
0.0020311,-0.08
0.0020317,-0.075
0.0020322,-0.05
0.0020328,-0.065
0.0020333,-0.085
0.0020339,-0.09
0.0020344,-0.11
0.002035,-0.115
0.0020356,-0.1
0.0020361,-0.095
0.0020367,-0.085
0.0020372,-0.065
0.0020378,-0.06
0.0020383,-0.065
0.0020389,-0.095
0.0020394,-0.12
0.00204,-0.1
0.0020406,-0.1
0.0020411,-0.105
0.0020417,-0.085
0.0020422,-0.075
0.0020428,-0.075
0.0020433,-0.07
0.0020439,-0.085
0.0020444,-0.1
0.002045,-0.115
0.0020456,-0.12
0.0020461,-0.115
0.0020467,-0.1
0.0020472,-0.08
0.0020478,-0.09
0.0020483,-0.09
0.0020489,-0.07
0.0020494,-0.095
0.00205,-0.115
0.0020506,-0.115
0.0020511,-0.115
0.0020517,-0.12
0.0020522,-0.115
0.0020528,-0.095
0.0020533,-0.1
0.0020539,-0.095
0.0020544,-0.075
0.002055,-0.095
0.0020556,-0.11
0.0020561,-0.125
0.0020567,-0.12
0.0020572,-0.1
0.0020578,-0.115
0.0020583,-0.11
0.0020589,-0.1
0.0020594,-0.08
0.00206,-0.095
0.0020606,-0.095
0.0020611,-0.11
0.0020617,-0.13
0.0020622,-0.12
0.0020628,-0.125
0.0020633,-0.12
0.0020639,-0.11
0.0020644,-0.105
0.002065,-0.095
0.0020656,-0.1
0.0020661,-0.105
0.0020667,-0.12
0.0020672,-0.12
0.0020678,-0.125
0.0020683,-0.12
0.0020689,-0.105
0.0020694,-0.095
0.00207,-0.095
0.0020706,-0.09
0.0020711,-0.1
0.0020717,-0.105
0.0020722,-0.115
0.0020728,-0.115
0.0020733,-0.14
0.0020739,-0.135
0.0020744,-0.12
0.002075,-0.12
0.0020756,-0.11
0.0020761,-0.105
0.0020767,-0.095
0.0020772,-0.115
0.0020778,-0.13
0.0020783,-0.13
0.0020789,-0.115
0.0020794,-0.125
0.00208,-0.105
0.0020806,-0.105
0.0020811,-0.095
0.0020817,-0.095
0.0020822,-0.11
0.0020828,-0.105
0.0020833,-0.105
0.0020839,-0.115
0.0020844,-0.135
0.002085,-0.145
0.0020856,-0.115
0.0020861,-0.1
0.0020867,-0.11
0.0020872,-0.095
0.0020878,-0.095
0.0020883,-0.11
0.0020889,-0.115
0.0020894,-0.12
0.00209,-0.13
0.0020906,-0.14
0.0020911,-0.125
0.0020917,-0.115
0.0020922,-0.1
0.0020928,-0.1
0.0020933,-0.11
0.0020939,-0.105
0.0020944,-0.105
0.002095,-0.1
0.0020956,-0.125
0.0020961,-0.105
0.0020967,-0.08
0.0020972,-0.08
0.0020978,-0.06
0.0020983,-0.065
0.0020989,-0.065
0.0020994,-0.08
0.0021,-0.095
0.0021006,-0.1
0.0021011,-0.11
0.0021017,-0.105
0.0021022,-0.075
0.0021028,-0.05
0.0021033,-0.05
0.0021039,-0.045
0.0021044,-0.05
0.002105,-0.065
0.0021056,-0.07
0.0021061,-0.055
0.0021067,-0.065
0.0021072,-0.055
0.0021078,-0.06
0.0021083,-0.04
0.0021089,-0.035
0.0021094,-0.03
0.00211,-0.045
0.0021106,-0.06
0.0021111,-0.065
0.0021117,-0.065
0.0021122,-0.075
0.0021128,-0.075
0.0021133,-0.075
0.0021139,-0.075
0.0021144,-0.05
0.002115,-0.07
0.0021156,-0.095
0.0021161,-0.095
0.0021167,-0.11
0.0021172,-0.115
0.0021178,-0.135
0.0021183,-0.11
0.0021189,-0.105
0.0021194,-0.115
0.00212,-0.105
0.0021206,-0.1
0.0021211,-0.105
0.0021217,-0.115
0.0021222,-0.135
0.0021228,-0.14
0.0021233,-0.13
0.0021239,-0.13
0.0021244,-0.12
0.002125,-0.115
0.0021256,-0.1
0.0021261,-0.095
0.0021267,-0.105
0.0021272,-0.12
0.0021278,-0.12
0.0021283,-0.12
0.0021289,-0.15
0.0021294,-0.13
0.00213,-0.12
0.0021306,-0.115
0.0021311,-0.135
0.0021317,-0.12
0.0021322,-0.11
0.0021328,-0.11
0.0021333,-0.115
0.0021339,-0.13
0.0021344,-0.135
0.002135,-0.135
0.0021356,-0.125
0.0021361,-0.105
0.0021367,-0.11
0.0021372,-0.11
0.0021378,-0.135
0.0021383,-0.135
0.0021389,-0.15
0.0021394,-0.16
0.00214,-0.16
0.0021406,-0.145
0.0021411,-0.15
0.0021417,-0.17
0.0021422,-0.15
0.0021428,-0.135
0.0021433,-0.115
0.0021439,-0.08
0.0021444,-0.04
0.002145,0
0.0021456,0.03
0.0021461,0.095
0.0021467,0.155
0.0021472,0.24
0.0021478,0.345
0.0021483,0.415
0.0021489,0.5
0.0021494,0.485
0.00215,0.465
0.0021506,0.395
0.0021511,0.35
0.0021517,0.285
0.0021522,0.24
0.0021528,0.175
0.0021533,0.085
0.0021539,-0.025
0.0021544,-0.135
0.002155,-0.22
0.0021556,-0.225
0.0021561,-0.205
0.0021567,-0.18
0.0021572,-0.15
0.0021578,-0.135
0.0021583,-0.11
0.0021589,-0.095
0.0021594,-0.085
0.00216,-0.075
0.0021606,-0.095
0.0021611,-0.105
0.0021617,-0.125
0.0021622,-0.12
0.0021628,-0.12
0.0021633,-0.11
0.0021639,-0.095
0.0021644,-0.08
0.002165,-0.075
0.0021656,-0.085
0.0021661,-0.1
0.0021667,-0.12
0.0021672,-0.125
0.0021678,-0.11
0.0021683,-0.12
0.0021689,-0.115
0.0021694,-0.1
0.00217,-0.09
0.0021706,-0.085
0.0021711,-0.1
0.0021717,-0.1
0.0021722,-0.09
0.0021728,-0.095
0.0021733,-0.085
0.0021739,-0.09
0.0021744,-0.09
0.002175,-0.085
0.0021756,-0.065
0.0021761,-0.075
0.0021767,-0.08
0.0021772,-0.075
0.0021778,-0.08
0.0021783,-0.1
0.0021789,-0.09
0.0021794,-0.07
0.00218,-0.055
0.0021806,-0.065
0.0021811,-0.065
0.0021817,-0.06
0.0021822,-0.035
0.0021828,-0.025
0.0021833,-0.015
0.0021839,0
0.0021844,0.015
0.002185,0.04
0.0021856,0.04
0.0021861,0.075
0.0021867,0.085
0.0021872,0.085
0.0021878,0.09
0.0021883,0.095
0.0021889,0.07
0.0021894,0.08
0.00219,0.1
0.0021906,0.1
0.0021911,0.12
0.0021917,0.135
0.0021922,0.145
0.0021928,0.125
0.0021933,0.135
0.0021939,0.13
0.0021944,0.115
0.002195,0.135
0.0021956,0.145
0.0021961,0.18
0.0021967,0.19
0.0021972,0.175
0.0021978,0.185
0.0021983,0.19
0.0021989,0.18
0.0021994,0.185
0.0022,0.18
0.0022006,0.185
0.0022011,0.195
0.0022017,0.215
0.0022022,0.21
0.0022028,0.22
0.0022033,0.25
0.0022039,0.255
0.0022044,0.25
0.002205,0.26
0.0022056,0.245
0.0022061,0.26
0.0022067,0.26
0.0022072,0.285
0.0022078,0.275
0.0022083,0.305
0.0022089,0.305
0.0022094,0.295
0.00221,0.29
0.0022106,0.27
0.0022111,0.275
0.0022117,0.28
0.0022122,0.285
0.0022128,0.295
0.0022133,0.32
0.0022139,0.29
0.0022144,0.32
0.002215,0.305
0.0022156,0.3
0.0022161,0.28
0.0022167,0.26
0.0022172,0.27
0.0022178,0.26
0.0022183,0.27
0.0022189,0.27
0.0022194,0.265
0.00222,0.265
0.0022206,0.24
0.0022211,0.215
0.0022217,0.225
0.0022222,0.21
0.0022228,0.18
0.0022233,0.175
0.0022239,0.17
0.0022244,0.17
0.002225,0.185
0.0022256,0.16
0.0022261,0.145
0.0022267,0.125
0.0022272,0.115
0.0022278,0.1
0.0022283,0.11
0.0022289,0.105
0.0022294,0.1
0.00223,0.13
0.0022306,0.11
0.0022311,0.105
0.0022317,0.085
0.0022322,0.07
0.0022328,0.065
0.0022333,0.065
0.0022339,0.06
0.0022344,0.075
0.002235,0.075
0.0022356,0.07
0.0022361,0.065
0.0022367,0.065
0.0022372,0.06
0.0022378,0.045
0.0022383,0.035
0.0022389,0.035
0.0022394,0.02
0.00224,0.035
0.0022406,0.05
0.0022411,0.05
0.0022417,0.07
0.0022422,0.07
0.0022428,0.05
0.0022433,0.05
0.0022439,0.04
0.0022444,0.03
0.002245,0.035
0.0022456,0.05
0.0022461,0.05
0.0022467,0.07
0.0022472,0.08
0.0022478,0.055
0.0022483,0.045
0.0022489,0.04
0.0022494,0.03
0.00225,0.04
0.0022506,0.02
0.0022511,0.04
0.0022517,0.05
0.0022522,0.05
0.0022528,0.06
0.0022533,0.045
0.0022539,0.035
0.0022544,0.035
0.002255,0.025
0.0022556,0.025
0.0022561,0.03
0.0022567,0.04
0.0022572,0.05
0.0022578,0.055
0.0022583,0.065
0.0022589,0.05
0.0022594,0.045
0.00226,0.03
0.0022606,0.02
0.0022611,0.015
0.0022617,0.01
0.0022622,0.015
0.0022628,0.03
0.0022633,0.04
0.0022639,0.05
0.0022644,0.04
0.002265,0.025
0.0022656,0.02
0.0022661,0.005
0.0022667,0.01
0.0022672,0.01
0.0022678,0.03
0.0022683,0.035
0.0022689,0.045
0.0022694,0.035
0.00227,0.035
0.0022706,0.015
0.0022711,0.01
0.0022717,0
0.0022722,-0.01
0.0022728,-0.005
0.0022733,0.015
0.0022739,0.015
0.0022744,0.01
0.002275,0.025
0.0022756,0.015
0.0022761,0.005
0.0022767,-0.015
0.0022772,0.01
0.0022778,0.005
0.0022783,-0.005
0.0022789,0.005
0.0022794,0.01
0.00228,0.02
0.0022806,0
0.0022811,0.01
0.0022817,-0.015
0.0022822,-0.04
0.0022828,-0.045
0.0022833,-0.05
0.0022839,-0.03
0.0022844,-0.015
0.002285,-0.005
0.0022856,0.01
0.0022861,-0.03
0.0022867,0
0.0022872,-0.01
0.0022878,-0.01
0.0022883,-0.03
0.0022889,-0.025
0.0022894,-0.04
0.00229,-0.035
0.0022906,-0.01
0.0022911,-0.005
0.0022917,-0.02
0.0022922,-0.03
0.0022928,-0.04
0.0022933,-0.03
0.0022939,-0.045
0.0022944,-0.06
0.002295,-0.02
0.0022956,0
0.0022961,-0.025
0.0022967,-0.02
0.0022972,0.015
0.0022978,-0.035
0.0022983,-0.04
0.0022989,-0.06
0.0022994,-0.05
0.0023,-0.035
0.0023006,-0.05
0.0023011,-0.035
0.0023017,-0.05
0.0023022,-0.04
0.0023028,-0.03
0.0023033,-0.03
0.0023039,-0.05
0.0023044,-0.045
0.002305,-0.06
0.0023056,-0.08
0.0023061,-0.045
0.0023067,-0.04
0.0023072,-0.045
0.0023078,-0.04
0.0023083,-0.03
0.0023089,-0.065
0.0023094,-0.065
0.00231,-0.055
0.0023106,-0.07
0.0023111,-0.075
0.0023117,-0.07
0.0023122,-0.055
0.0023128,-0.055
0.0023133,-0.06
0.0023139,-0.05
0.0023144,-0.065
0.002315,-0.075
0.0023156,-0.075
0.0023161,-0.085
0.0023167,-0.095
0.0023172,-0.08
0.0023178,-0.07
0.0023183,-0.07
0.0023189,-0.065
0.0023194,-0.075
0.00232,-0.075
0.0023206,-0.08
0.0023211,-0.075
0.0023217,-0.1
0.0023222,-0.085
0.0023228,-0.08
0.0023233,-0.075
0.0023239,-0.055
0.0023244,-0.06
0.002325,-0.08
0.0023256,-0.09
0.0023261,-0.105
0.0023267,-0.11
0.0023272,-0.11
0.0023278,-0.1
0.0023283,-0.075
0.0023289,-0.065
0.0023294,-0.055
0.00233,-0.05
0.0023306,-0.055
0.0023311,-0.075
0.0023317,-0.065
0.0023322,-0.06
0.0023328,-0.065
0.0023333,-0.055
0.0023339,-0.04
0.0023344,-0.045
0.002335,-0.04
0.0023356,-0.045
0.0023361,-0.05
0.0023367,-0.07
0.0023372,-0.08
0.0023378,-0.08
0.0023383,-0.065
0.0023389,-0.025
0.0023394,-0.03
0.00234,-0.03
0.0023406,-0.03
0.0023411,0
0.0023417,-0.01
0.0023422,-0.02
0.0023428,-0.035
0.0023433,-0.04
0.0023439,-0.045
0.0023444,-0.04
0.002345,-0.025
0.0023456,-0.03
0.0023461,-0.03
0.0023467,-0.025
0.0023472,-0.005
0.0023478,-0.035
0.0023483,-0.045
0.0023489,-0.065
0.0023494,-0.1
0.00235,-0.085
0.0023506,-0.08
0.0023511,-0.08
0.0023517,-0.08
0.0023522,-0.08
0.0023528,-0.09
0.0023533,-0.1
0.0023539,-0.115
0.0023544,-0.12
0.002355,-0.135
0.0023556,-0.13
0.0023561,-0.105
0.0023567,-0.115
0.0023572,-0.1
0.0023578,-0.105
0.0023583,-0.095
0.0023589,-0.1
0.0023594,-0.12
0.00236,-0.13
0.0023606,-0.135
0.0023611,-0.12
0.0023617,-0.115
0.0023622,-0.105
0.0023628,-0.105
0.0023633,-0.105
0.0023639,-0.12
0.0023644,-0.14
0.002365,-0.135
0.0023656,-0.13
0.0023661,-0.145
0.0023667,-0.13
0.0023672,-0.11
0.0023678,-0.11
0.0023683,-0.13
0.0023689,-0.115
0.0023694,-0.11
0.00237,-0.125
0.0023706,-0.14
0.0023711,-0.14
0.0023717,-0.16
0.0023722,-0.13
0.0023728,-0.125
0.0023733,-0.13
0.0023739,-0.15
0.0023744,-0.12
0.002375,-0.145
0.0023756,-0.16
0.0023761,-0.175
0.0023767,-0.16
0.0023772,-0.195
0.0023778,-0.185
0.0023783,-0.14
0.0023789,-0.09
0.0023794,-0.045
0.00238,0.01
0.0023806,0.05
0.0023811,0.07
0.0023817,0.12
0.0023822,0.19
0.0023828,0.28
0.0023833,0.39
0.0023839,0.505
0.0023844,0.52
0.002385,0.51
0.0023856,0.47
0.0023861,0.385
0.0023867,0.33
0.0023872,0.25
0.0023878,0.155
0.0023883,0.06
0.0023889,-0.06
0.0023894,-0.135
0.00239,-0.205
0.0023906,-0.22
0.0023911,-0.205
0.0023917,-0.21
0.0023922,-0.195
0.0023928,-0.165
0.0023933,-0.145
0.0023939,-0.13
0.0023944,-0.13
0.002395,-0.11
0.0023956,-0.09
0.0023961,-0.095
0.0023967,-0.105
0.0023972,-0.115
0.0023978,-0.115
0.0023983,-0.115
0.0023989,-0.115
0.0023994,-0.11
0.0024,-0.11
0.0024006,-0.08
0.0024011,-0.12
0.0024017,-0.1
0.0024022,-0.08
0.0024028,-0.11
0.0024033,-0.145
0.0024039,-0.125
0.0024044,-0.13
0.002405,-0.115
0.0024056,-0.11
0.0024061,-0.08
0.0024067,-0.065
0.0024072,-0.07
0.0024078,-0.08
0.0024083,-0.095
0.0024089,-0.1
0.0024094,-0.095
0.00241,-0.115
0.0024106,-0.11
0.0024111,-0.085
0.0024117,-0.09
0.0024122,-0.065
0.0024128,-0.04
0.0024133,-0.065
0.0024139,-0.045
0.0024144,-0.08
0.002415,-0.065
0.0024156,-0.1
0.0024161,-0.105
0.0024167,-0.095
0.0024172,-0.08
0.0024178,-0.07
0.0024183,-0.06
0.0024189,-0.08
0.0024194,-0.08
0.00242,-0.075
0.0024206,-0.055
0.0024211,-0.095
0.0024217,-0.075
0.0024222,-0.055
0.0024228,-0.035
0.0024233,-0.03
0.0024239,-0.03
0.0024244,-0.035
0.002425,-0.045
0.0024256,-0.04
0.0024261,-0.045
0.0024267,-0.045
0.0024272,-0.045
0.0024278,-0.035
0.0024283,-0.015
0.0024289,0
0.0024294,0.005
0.00243,0
0.0024306,-0.015
0.0024311,-0.02
0.0024317,-0.025
0.0024322,-0.015
0.0024328,0
0.0024333,-0.01
0.0024339,0.02
0.0024344,0.03
0.002435,0.05
0.0024356,0.055
0.0024361,0.045
0.0024367,0.04
0.0024372,0.03
0.0024378,0.03
0.0024383,0.035
0.0024389,0.055
0.0024394,0.065
0.00244,0.085
0.0024406,0.13
0.0024411,0.1
0.0024417,0.075
0.0024422,0.09
0.0024428,0.09
0.0024433,0.095
0.0024439,0.095
0.0024444,0.11
0.002445,0.12
0.0024456,0.13
0.0024461,0.15
0.0024467,0.135
0.0024472,0.1
0.0024478,0.1
0.0024483,0.115
0.0024489,0.095
0.0024494,0.115
0.00245,0.125
0.0024506,0.11
0.0024511,0.125
0.0024517,0.115
0.0024522,0.105
0.0024528,0.09
0.0024533,0.085
0.0024539,0.07
0.0024544,0.06
0.002455,0.06
0.0024556,0.05
0.0024561,0.095
0.0024567,0.045
0.0024572,0.04
0.0024578,0.03
0.0024583,-0.005
0.0024589,-0.015
0.0024594,-0.01
0.00246,-0.035
0.0024606,-0.04
0.0024611,-0.03
0.0024617,-0.04
0.0024622,-0.05
0.0024628,-0.04
0.0024633,-0.06
0.0024639,-0.1
0.0024644,-0.105
0.002465,-0.105
0.0024656,-0.115
0.0024661,-0.095
0.0024667,-0.09
0.0024672,-0.065
0.0024678,-0.085
0.0024683,-0.09
0.0024689,-0.115
0.0024694,-0.135
0.00247,-0.135
0.0024706,-0.115
0.0024711,-0.125
0.0024717,-0.125
0.0024722,-0.12
0.0024728,-0.11
0.0024733,-0.095
0.0024739,-0.1
0.0024744,-0.115
0.002475,-0.125
0.0024756,-0.14
0.0024761,-0.145
0.0024767,-0.14
0.0024772,-0.12
0.0024778,-0.115
0.0024783,-0.105
0.0024789,-0.105
0.0024794,-0.1
0.00248,-0.115
0.0024806,-0.12
0.0024811,-0.135
0.0024817,-0.14
0.0024822,-0.14
0.0024828,-0.125
0.0024833,-0.105
0.0024839,-0.11
0.0024844,-0.1
0.002485,-0.105
0.0024856,-0.1
0.0024861,-0.105
0.0024867,-0.11
0.0024872,-0.125
0.0024878,-0.14
0.0024883,-0.125
0.0024889,-0.115
0.0024894,-0.135
0.00249,-0.105
0.0024906,-0.11
0.0024911,-0.12
0.0024917,-0.125
0.0024922,-0.125
0.0024928,-0.125
0.0024933,-0.12
0.0024939,-0.125
0.0024944,-0.11
0.002495,-0.095
0.0024956,-0.09
0.0024961,-0.095
0.0024967,-0.105
0.0024972,-0.11
0.0024978,-0.1
0.0024983,-0.12
0.0024989,-0.13
0.0024994,-0.125
0.0025,-0.105
0.0025006,-0.105
0.0025011,-0.095
0.0025017,-0.105
0.0025022,-0.11
0.0025028,-0.1
0.0025033,-0.13
0.0025039,-0.135
0.0025044,-0.125
0.002505,-0.11
0.0025056,-0.11
0.0025061,-0.095
0.0025067,-0.09
0.0025072,-0.08
0.0025078,-0.085
0.0025083,-0.095
0.0025089,-0.12
0.0025094,-0.12
0.00251,-0.13
0.0025106,-0.115
0.0025111,-0.12
0.0025117,-0.1
0.0025122,-0.09
0.0025128,-0.095
0.0025133,-0.11
0.0025139,-0.12
0.0025144,-0.12
0.002515,-0.12
0.0025156,-0.12
0.0025161,-0.11
0.0025167,-0.11
0.0025172,-0.1
0.0025178,-0.1
0.0025183,-0.11
0.0025189,-0.12
0.0025194,-0.125
0.00252,-0.12
0.0025206,-0.13
0.0025211,-0.135
0.0025217,-0.125
0.0025222,-0.115
0.0025228,-0.105
0.0025233,-0.095
0.0025239,-0.125
0.0025244,-0.13
0.002525,-0.135
0.0025256,-0.135
0.0025261,-0.145
0.0025267,-0.125
0.0025272,-0.115
0.0025278,-0.13
0.0025283,-0.115
0.0025289,-0.115
0.0025294,-0.11
0.00253,-0.125
0.0025306,-0.125
0.0025311,-0.135
0.0025317,-0.13
0.0025322,-0.125
0.0025328,-0.125
0.0025333,-0.13
0.0025339,-0.125
0.0025344,-0.12
0.002535,-0.14
0.0025356,-0.14
0.0025361,-0.14
0.0025367,-0.145
0.0025372,-0.16
0.0025378,-0.14
0.0025383,-0.13
0.0025389,-0.12
0.0025394,-0.115
0.00254,-0.11
0.0025406,-0.13
0.0025411,-0.14
0.0025417,-0.14
0.0025422,-0.15
0.0025428,-0.155
0.0025433,-0.135
0.0025439,-0.125
0.0025444,-0.11
0.002545,-0.1
0.0025456,-0.1
0.0025461,-0.13
0.0025467,-0.125
0.0025472,-0.14
0.0025478,-0.15
0.0025483,-0.15
0.0025489,-0.13
0.0025494,-0.12
0.00255,-0.13
0.0025506,-0.105
0.0025511,-0.125
0.0025517,-0.14
0.0025522,-0.145
0.0025528,-0.135
0.0025533,-0.14
0.0025539,-0.16
0.0025544,-0.125
0.002555,-0.13
0.0025556,-0.14
0.0025561,-0.135
0.0025567,-0.14
0.0025572,-0.15
0.0025578,-0.135
0.0025583,-0.145
0.0025589,-0.15
0.0025594,-0.15
0.00256,-0.13
0.0025606,-0.12
0.0025611,-0.11
0.0025617,-0.1
0.0025622,-0.11
0.0025628,-0.105
0.0025633,-0.11
0.0025639,-0.105
0.0025644,-0.115
0.002565,-0.11
0.0025656,-0.12
0.0025661,-0.1
0.0025667,-0.11
0.0025672,-0.085
0.0025678,-0.105
0.0025683,-0.1
0.0025689,-0.1
0.0025694,-0.095
0.00257,-0.085
0.0025706,-0.085
0.0025711,-0.08
0.0025717,-0.06
0.0025722,-0.06
0.0025728,-0.045
0.0025733,-0.06
0.0025739,-0.07
0.0025744,-0.06
0.002575,-0.07
0.0025756,-0.07
0.0025761,-0.065
0.0025767,-0.075
0.0025772,-0.085
0.0025778,-0.07
0.0025783,-0.09
0.0025789,-0.1
0.0025794,-0.1
0.00258,-0.115
0.0025806,-0.125
0.0025811,-0.14
0.0025817,-0.13
0.0025822,-0.125
0.0025828,-0.125
0.0025833,-0.135
0.0025839,-0.125
0.0025844,-0.14
0.002585,-0.13
0.0025856,-0.13
0.0025861,-0.145
0.0025867,-0.15
0.0025872,-0.135
0.0025878,-0.14
0.0025883,-0.14
0.0025889,-0.115
0.0025894,-0.13
0.00259,-0.145
0.0025906,-0.15
0.0025911,-0.145
0.0025917,-0.16
0.0025922,-0.165
0.0025928,-0.145
0.0025933,-0.135
0.0025939,-0.13
0.0025944,-0.13
0.002595,-0.14
0.0025956,-0.14
0.0025961,-0.15
0.0025967,-0.165
0.0025972,-0.16
0.0025978,-0.185
0.0025983,-0.15
0.0025989,-0.135
0.0025994,-0.13
0.0026,-0.145
0.0026006,-0.135
0.0026011,-0.135
0.0026017,-0.16
0.0026022,-0.16
0.0026028,-0.17
0.0026033,-0.185
0.0026039,-0.17
0.0026044,-0.175
0.002605,-0.165
0.0026056,-0.17
0.0026061,-0.165
0.0026067,-0.18
0.0026072,-0.195
0.0026078,-0.21
0.0026083,-0.19
0.0026089,-0.165
0.0026094,-0.11
0.00261,-0.05
0.0026106,0
0.0026111,0.055
0.0026117,0.125
0.0026122,0.185
0.0026128,0.28
0.0026133,0.375
0.0026139,0.495
0.0026144,0.585
0.002615,0.58
0.0026156,0.555
0.0026161,0.49
0.0026167,0.43
0.0026172,0.325
0.0026178,0.235
0.0026183,0.105
0.0026189,-0.01
0.0026194,-0.12
0.00262,-0.24
0.0026206,-0.275
0.0026211,-0.26
0.0026217,-0.22
0.0026222,-0.195
0.0026228,-0.185
0.0026233,-0.15
0.0026239,-0.135
0.0026244,-0.16
0.002625,-0.145
0.0026256,-0.14
0.0026261,-0.125
0.0026267,-0.115
0.0026272,-0.115
0.0026278,-0.11
0.0026283,-0.11
0.0026289,-0.135
0.0026294,-0.13
0.00263,-0.14
0.0026306,-0.145
0.0026311,-0.15
0.0026317,-0.12
0.0026322,-0.12
0.0026328,-0.115
0.0026333,-0.105
0.0026339,-0.09
0.0026344,-0.115
0.002635,-0.125
0.0026356,-0.125
0.0026361,-0.13
0.0026367,-0.125
0.0026372,-0.12
0.0026378,-0.095
0.0026383,-0.1
0.0026389,-0.1
0.0026394,-0.1
0.00264,-0.11
0.0026406,-0.12
0.0026411,-0.12
0.0026417,-0.125
0.0026422,-0.1
0.0026428,-0.11
0.0026433,-0.09
0.0026439,-0.08
0.0026444,-0.08
0.002645,-0.075
0.0026456,-0.08
0.0026461,-0.085
0.0026467,-0.1
0.0026472,-0.095
0.0026478,-0.1
0.0026483,-0.075
0.0026489,-0.075
0.0026494,-0.07
0.00265,-0.065
0.0026506,-0.065
0.0026511,-0.08
0.0026517,-0.09
0.0026522,-0.095
0.0026528,-0.095
0.0026533,-0.075
0.0026539,-0.07
0.0026544,-0.06
0.002655,-0.04
0.0026556,-0.035
0.0026561,-0.045
0.0026567,-0.065
0.0026572,-0.065
0.0026578,-0.055
0.0026583,-0.05
0.0026589,-0.045
0.0026594,-0.04
0.00266,-0.025
0.0026606,0.005
0.0026611,0.005
0.0026617,0.015
0.0026622,0.005
0.0026628,-0.01
0.0026633,-0.01
0.0026639,-0.02
0.0026644,-0.005
0.002665,0.005
0.0026656,0.03
0.0026661,0.025
0.0026667,0.04
0.0026672,0.065
0.0026678,0.06
0.0026683,0.055
0.0026689,0.055
0.0026694,0.045
0.00267,0.06
0.0026706,0.07
0.0026711,0.075
0.0026717,0.095
0.0026722,0.12
0.0026728,0.115
0.0026733,0.125
0.0026739,0.12
0.0026744,0.12
0.002675,0.115
0.0026756,0.11
0.0026761,0.125
0.0026767,0.15
0.0026772,0.14
0.0026778,0.145
0.0026783,0.145
0.0026789,0.13
0.0026794,0.11
0.00268,0.095
0.0026806,0.095
0.0026811,0.095
0.0026817,0.12
0.0026822,0.12
0.0026828,0.125
0.0026833,0.125
0.0026839,0.105
0.0026844,0.095
0.002685,0.07
0.0026856,0.06
0.0026861,0.045
0.0026867,0.04
0.0026872,0.04
0.0026878,0.04
0.0026883,0.015
0.0026889,0.02
0.0026894,0.015
0.00269,-0.025
0.0026906,-0.055
0.0026911,-0.045
0.0026917,-0.05
0.0026922,-0.065
0.0026928,-0.065
0.0026933,-0.045
0.0026939,-0.055
0.0026944,-0.055
0.002695,-0.07
0.0026956,-0.085
0.0026961,-0.105
0.0026967,-0.11
0.0026972,-0.11
0.0026978,-0.115
0.0026983,-0.11
0.0026989,-0.105
0.0026994,-0.11
0.0027,-0.105
0.0027006,-0.1
0.0027011,-0.095
0.0027017,-0.13
0.0027022,-0.135
0.0027028,-0.14
0.0027033,-0.115
0.0027039,-0.125
0.0027044,-0.125
0.002705,-0.095
0.0027056,-0.1
0.0027061,-0.125
0.0027067,-0.14
0.0027072,-0.135
0.0027078,-0.14
0.0027083,-0.145
0.0027089,-0.125
0.0027094,-0.115
0.00271,-0.11
0.0027106,-0.12
0.0027111,-0.11
0.0027117,-0.125
0.0027122,-0.125
0.0027128,-0.125
0.0027133,-0.125
0.0027139,-0.135
0.0027144,-0.115
0.002715,-0.12
0.0027156,-0.11
0.0027161,-0.1
0.0027167,-0.085
0.0027172,-0.105
0.0027178,-0.11
0.0027183,-0.125
0.0027189,-0.125
0.0027194,-0.125
0.00272,-0.12
0.0027206,-0.095
0.0027211,-0.095
0.0027217,-0.09
0.0027222,-0.1
0.0027228,-0.105
0.0027233,-0.115
0.0027239,-0.115
0.0027244,-0.125
0.002725,-0.13
0.0027256,-0.105
0.0027261,-0.1
0.0027267,-0.08
0.0027272,-0.09
0.0027278,-0.075
0.0027283,-0.1
0.0027289,-0.125
0.0027294,-0.12
0.00273,-0.125
0.0027306,-0.13
0.0027311,-0.09
0.0027317,-0.095
0.0027322,-0.08
0.0027328,-0.07
0.0027333,-0.08
0.0027339,-0.09
0.0027344,-0.11
0.002735,-0.115
0.0027356,-0.12
0.0027361,-0.11
0.0027367,-0.1
0.0027372,-0.1
0.0027378,-0.09
0.0027383,-0.08
0.0027389,-0.095
0.0027394,-0.105
0.00274,-0.105
0.0027406,-0.125
0.0027411,-0.115
0.0027417,-0.11
0.0027422,-0.105
0.0027428,-0.1
0.0027433,-0.09
0.0027439,-0.095
0.0027444,-0.1
0.002745,-0.115
0.0027456,-0.11
0.0027461,-0.105
0.0027467,-0.08
0.0027472,-0.075
0.0027478,-0.055
0.0027483,-0.045
0.0027489,-0.025
0.0027494,0
0.00275,0
0.0027506,-0.005
0.0027511,-0.025
0.0027517,-0.01
0.0027522,-0.015
0.0027528,-0.025
0.0027533,0.005
0.0027539,0.015
0.0027544,0.02
0.002755,0.035
0.0027556,0.035
0.0027561,0.015
0.0027567,0.005
0.0027572,-0.01
0.0027578,-0.01
0.0027583,0.015
0.0027589,0.03
0.0027594,0.035
0.00276,0.035
0.0027606,0.04
0.0027611,0.02
0.0027617,0.01
0.0027622,0.005
0.0027628,0.005
0.0027633,0.01
0.0027639,0.01
0.0027644,0.025
0.002765,0.03
0.0027656,0.045
0.0027661,0.055
0.0027667,0.05
0.0027672,0.03
0.0027678,0.01
0.0027683,0.01
0.0027689,0.005
0.0027694,0.005
0.00277,0.025
0.0027706,0.04
0.0027711,0.05
0.0027717,0.035
0.0027722,0.025
0.0027728,0.02
0.0027733,0.01
0.0027739,0.015
0.0027744,0.015
0.002775,0.015
0.0027756,0.03
0.0027761,0.02
0.0027767,0.035
0.0027772,0.04
0.0027778,0.025
0.0027783,0.02
0.0027789,0.02
0.0027794,0
0.00278,0.005
0.0027806,0.005
0.0027811,0.03
0.0027817,0.03
0.0027822,0.03
0.0027828,0.035
0.0027833,0.015
0.0027839,-0.01
0.0027844,-0.015
0.002785,-0.005
0.0027856,-0.005
0.0027861,0.01
0.0027867,0.015
0.0027872,0.035
0.0027878,0.035
0.0027883,0.04
0.0027889,0.025
0.0027894,0.015
0.00279,0.01
0.0027906,0.01
0.0027911,0.02
0.0027917,0.03
0.0027922,0.04
0.0027928,0.045
0.0027933,0.055
0.0027939,0.05
0.0027944,0.045
0.002795,0.03
0.0027956,0.02
0.0027961,0.025
0.0027967,0.04
0.0027972,0.05
0.0027978,0.075
0.0027983,0.09
0.0027989,0.1
0.0027994,0.095
0.0028,0.08
0.0028006,0.075
0.0028011,0.045
0.0028017,0.04
0.0028022,0.04
0.0028028,0.055
0.0028033,0.07
0.0028039,0.07
0.0028044,0.08
0.002805,0.075
0.0028056,0.05
0.0028061,0.025
0.0028067,0.01
0.0028072,-0.005
0.0028078,0
0.0028083,0.005
0.0028089,0
0.0028094,0.005
0.00281,0.01
0.0028106,0.01
0.0028111,-0.02
0.0028117,-0.03
0.0028122,-0.04
0.0028128,-0.05
0.0028133,-0.05
0.0028139,-0.04
0.0028144,-0.05
0.002815,-0.035
0.0028156,-0.035
0.0028161,-0.04
0.0028167,-0.045
0.0028172,-0.05
0.0028178,-0.06
0.0028183,-0.075
0.0028189,-0.075
0.0028194,-0.075
0.00282,-0.065
0.0028206,-0.06
0.0028211,-0.05
0.0028217,-0.06
0.0028222,-0.065
0.0028228,-0.085
0.0028233,-0.085
0.0028239,-0.095
0.0028244,-0.09
0.002825,-0.07
0.0028256,-0.075
0.0028261,-0.075
0.0028267,-0.07
0.0028272,-0.06
0.0028278,-0.07
0.0028283,-0.075
0.0028289,-0.09
0.0028294,-0.1
0.00283,-0.085
0.0028306,-0.08
0.0028311,-0.085
0.0028317,-0.075
0.0028322,-0.075
0.0028328,-0.095
0.0028333,-0.12
0.0028339,-0.125
0.0028344,-0.145
0.002835,-0.17
0.0028356,-0.155
0.0028361,-0.145
0.0028367,-0.115
0.0028372,-0.07
0.0028378,-0.005
0.0028383,0.06
0.0028389,0.08
0.0028394,0.135
0.00284,0.215
0.0028406,0.285
0.0028411,0.41
0.0028417,0.55
0.0028422,0.65
0.0028428,0.685
0.0028433,0.675
0.0028439,0.615
0.0028444,0.535
0.002845,0.44
0.0028456,0.33
0.0028461,0.23
0.0028467,0.105
0.0028472,-0.01
0.0028478,-0.13
0.0028483,-0.205
0.0028489,-0.225
0.0028494,-0.21
0.00285,-0.195
0.0028506,-0.19
0.0028511,-0.165
0.0028517,-0.15
0.0028522,-0.12
0.0028528,-0.095
0.0028533,-0.08
0.0028539,-0.08
0.0028544,-0.075
0.002855,-0.075
0.0028556,-0.105
0.0028561,-0.11
0.0028567,-0.115
0.0028572,-0.12
0.0028578,-0.1
0.0028583,-0.085
0.0028589,-0.085
0.0028594,-0.08
0.00286,-0.085
0.0028606,-0.1
0.0028611,-0.105
0.0028617,-0.115
0.0028622,-0.115
0.0028628,-0.115
0.0028633,-0.105
0.0028639,-0.1
0.0028644,-0.095
0.002865,-0.085
0.0028656,-0.075
0.0028661,-0.085
0.0028667,-0.1
0.0028672,-0.09
0.0028678,-0.105
0.0028683,-0.1
0.0028689,-0.09
0.0028694,-0.075
0.00287,-0.065
0.0028706,-0.06
0.0028711,-0.065
0.0028717,-0.075
0.0028722,-0.09
0.0028728,-0.095
0.0028733,-0.095
0.0028739,-0.095
0.0028744,-0.08
0.002875,-0.075
0.0028756,-0.075
0.0028761,-0.055
0.0028767,-0.055
0.0028772,-0.065
0.0028778,-0.075
0.0028783,-0.08
0.0028789,-0.085
0.0028794,-0.085
0.00288,-0.055
0.0028806,-0.04
0.0028811,-0.05
0.0028817,-0.055
0.0028822,-0.05
0.0028828,-0.055
0.0028833,-0.065
0.0028839,-0.065
0.0028844,-0.06
0.002885,-0.06
0.0028856,-0.035
0.0028861,-0.025
0.0028867,-0.03
0.0028872,-0.035
0.0028878,-0.04
0.0028883,-0.035
0.0028889,-0.025
0.0028894,-0.035
0.00289,-0.04
0.0028906,-0.03
0.0028911,-0.025
0.0028917,-0.005
0.0028922,0.005
0.0028928,0.025
0.0028933,0.03
0.0028939,0.01
0.0028944,0.01
0.002895,0.01
0.0028956,0.015
0.0028961,0.02
0.0028967,0.045
0.0028972,0.06
0.0028978,0.065
0.0028983,0.08
0.0028989,0.08
0.0028994,0.08
0.0029,0.06
0.0029006,0.07
0.0029011,0.08
0.0029017,0.085
0.0029022,0.09
0.0029028,0.11
0.0029033,0.12
0.0029039,0.12
0.0029044,0.12
0.002905,0.115
0.0029056,0.11
0.0029061,0.105
0.0029067,0.085
0.0029072,0.085
0.0029078,0.09
0.0029083,0.095
0.0029089,0.11
0.0029094,0.1
0.00291,0.1
0.0029106,0.075
0.0029111,0.055
0.0029117,0.035
0.0029122,0.03
0.0029128,0.03
0.0029133,0.025
0.0029139,0.03
0.0029144,0.04
0.002915,0.025
0.0029156,0.015
0.0029161,-0.02
0.0029167,-0.025
0.0029172,-0.05
0.0029178,-0.065
0.0029183,-0.065
0.0029189,-0.05
0.0029194,-0.04
0.00292,-0.04
0.0029206,-0.045
0.0029211,-0.065
0.0029217,-0.09
0.0029222,-0.12
0.0029228,-0.11
0.0029233,-0.13
0.0029239,-0.135
0.0029244,-0.14
0.002925,-0.14
0.0029256,-0.13
0.0029261,-0.11
0.0029267,-0.125
0.0029272,-0.14
0.0029278,-0.15
0.0029283,-0.15
0.0029289,-0.165
0.0029294,-0.15
0.00293,-0.145
0.0029306,-0.145
0.0029311,-0.135
0.0029317,-0.125
0.0029322,-0.14
0.0029328,-0.155
0.0029333,-0.16
0.0029339,-0.17
0.0029344,-0.16
0.002935,-0.165
0.0029356,-0.155
0.0029361,-0.145
0.0029367,-0.15
0.0029372,-0.12
0.0029378,-0.135
0.0029383,-0.13
0.0029389,-0.145
0.0029394,-0.16
0.00294,-0.17
0.0029406,-0.155
0.0029411,-0.145
0.0029417,-0.135
0.0029422,-0.13
0.0029428,-0.115
0.0029433,-0.135
0.0029439,-0.15
0.0029444,-0.155
0.002945,-0.16
0.0029456,-0.165
0.0029461,-0.145
0.0029467,-0.125
0.0029472,-0.115
0.0029478,-0.105
0.0029483,-0.1
0.0029489,-0.11
0.0029494,-0.125
0.00295,-0.135
0.0029506,-0.165
0.0029511,-0.165
0.0029517,-0.15
0.0029522,-0.14
0.0029528,-0.145
0.0029533,-0.14
0.0029539,-0.135
0.0029544,-0.125
0.002955,-0.145
0.0029556,-0.155
0.0029561,-0.15
0.0029567,-0.15
0.0029572,-0.14
0.0029578,-0.13
0.0029583,-0.125
0.0029589,-0.12
0.0029594,-0.115
0.00296,-0.14
0.0029606,-0.135
0.0029611,-0.13
0.0029617,-0.155
0.0029622,-0.16
0.0029628,-0.155
0.0029633,-0.15
0.0029639,-0.145
0.0029644,-0.14
0.002965,-0.13
0.0029656,-0.145
0.0029661,-0.145
0.0029667,-0.155
0.0029672,-0.16
0.0029678,-0.16
0.0029683,-0.15
0.0029689,-0.135
0.0029694,-0.13
0.00297,-0.135
0.0029706,-0.145
0.0029711,-0.16
0.0029717,-0.165
0.0029722,-0.16
0.0029728,-0.17
0.0029733,-0.17
0.0029739,-0.155
0.0029744,-0.14
0.002975,-0.13
0.0029756,-0.14
0.0029761,-0.15
0.0029767,-0.155
0.0029772,-0.16
0.0029778,-0.165
0.0029783,-0.18
0.0029789,-0.185
0.0029794,-0.165
0.00298,-0.16
0.0029806,-0.155
0.0029811,-0.14
0.0029817,-0.145
0.0029822,-0.155
0.0029828,-0.17
0.0029833,-0.165
0.0029839,-0.18
0.0029844,-0.16
0.002985,-0.155
0.0029856,-0.14
0.0029861,-0.145
0.0029867,-0.135
0.0029872,-0.16
0.0029878,-0.17
0.0029883,-0.19
0.0029889,-0.215
0.0029894,-0.21
0.00299,-0.2
0.0029906,-0.17
0.0029911,-0.15
0.0029917,-0.14
0.0029922,-0.15
0.0029928,-0.155
0.0029933,-0.155
0.0029939,-0.18
0.0029944,-0.185
0.002995,-0.19
0.0029956,-0.19
0.0029961,-0.175
0.0029967,-0.155
0.0029972,-0.15
0.0029978,-0.145
0.0029983,-0.15
0.0029989,-0.16
0.0029994,-0.165
0.003,-0.17
0.0030006,-0.16
0.0030011,-0.16
0.0030017,-0.15
0.0030022,-0.145
0.0030028,-0.135
0.0030033,-0.125
0.0030039,-0.14
0.0030044,-0.145
0.003005,-0.15
0.0030056,-0.16
0.0030061,-0.17
0.0030067,-0.15
0.0030072,-0.135
0.0030078,-0.105
0.0030083,-0.1
0.0030089,-0.095
0.0030094,-0.09
0.00301,-0.105
0.0030106,-0.125
0.0030111,-0.125
0.0030117,-0.125
0.0030122,-0.105
0.0030128,-0.09
0.0030133,-0.085
0.0030139,-0.11
0.0030144,-0.1
0.003015,-0.115
0.0030156,-0.12
0.0030161,-0.135
0.0030167,-0.145
0.0030172,-0.155
0.0030178,-0.14
0.0030183,-0.14
0.0030189,-0.145
0.0030194,-0.155
0.00302,-0.16
0.0030206,-0.175
0.0030211,-0.17
0.0030217,-0.18
0.0030222,-0.175
0.0030228,-0.175
0.0030233,-0.17
0.0030239,-0.17
0.0030244,-0.15
0.003025,-0.155
0.0030256,-0.155
0.0030261,-0.16
0.0030267,-0.175
0.0030272,-0.18
0.0030278,-0.195
0.0030283,-0.195
0.0030289,-0.185
0.0030294,-0.18
0.00303,-0.175
0.0030306,-0.165
0.0030311,-0.18
0.0030317,-0.195
0.0030322,-0.205
0.0030328,-0.2
0.0030333,-0.195
0.0030339,-0.205
0.0030344,-0.18
0.003035,-0.17
0.0030356,-0.17
0.0030361,-0.165
0.0030367,-0.155
0.0030372,-0.18
0.0030378,-0.19
0.0030383,-0.21
0.0030389,-0.21
0.0030394,-0.21
0.00304,-0.215
0.0030406,-0.185
0.0030411,-0.185
0.0030417,-0.17
0.0030422,-0.16
0.0030428,-0.16
0.0030433,-0.2
0.0030439,-0.235
0.0030444,-0.23
0.003045,-0.245
0.0030456,-0.24
0.0030461,-0.245
0.0030467,-0.235
0.0030472,-0.205
0.0030478,-0.175
0.0030483,-0.16
0.0030489,-0.09
0.0030494,-0.03
0.00305,0.005
0.0030506,0.08
0.0030511,0.195
0.0030517,0.305
0.0030522,0.435
0.0030528,0.515
0.0030533,0.52
0.0030539,0.505
0.0030544,0.44
0.003055,0.385
0.0030556,0.31
0.0030561,0.215
0.0030567,0.125
0.0030572,0.035
0.0030578,-0.085
0.0030583,-0.18
0.0030589,-0.255
0.0030594,-0.3
0.00306,-0.285
0.0030606,-0.285
0.0030611,-0.28
0.0030617,-0.265
0.0030622,-0.225
0.0030628,-0.2
0.0030633,-0.165
0.0030639,-0.15
0.0030644,-0.155
0.003065,-0.155
0.0030656,-0.17
0.0030661,-0.185
0.0030667,-0.195
0.0030672,-0.175
0.0030678,-0.155
0.0030683,-0.155
0.0030689,-0.15
0.0030694,-0.155
0.00307,-0.155
0.0030706,-0.17
0.0030711,-0.15
0.0030717,-0.145
0.0030722,-0.155
0.0030728,-0.155
0.0030733,-0.15
0.0030739,-0.14
0.0030744,-0.125
0.003075,-0.105
0.0030756,-0.13
0.0030761,-0.15
0.0030767,-0.135
0.0030772,-0.15
0.0030778,-0.16
0.0030783,-0.15
0.0030789,-0.145
0.0030794,-0.125
0.00308,-0.115
0.0030806,-0.105
0.0030811,-0.11
0.0030817,-0.11
0.0030822,-0.12
0.0030828,-0.135
0.0030833,-0.125
0.0030839,-0.115
0.0030844,-0.105
0.003085,-0.11
0.0030856,-0.115
0.0030861,-0.11
0.0030867,-0.115
0.0030872,-0.13
0.0030878,-0.12
0.0030883,-0.12
0.0030889,-0.14
0.0030894,-0.14
0.00309,-0.12
0.0030906,-0.105
0.0030911,-0.085
0.0030917,-0.085
0.0030922,-0.08
0.0030928,-0.085
0.0030933,-0.09
0.0030939,-0.1
0.0030944,-0.09
0.003095,-0.095
0.0030956,-0.08
0.0030961,-0.065
0.0030967,-0.06
0.0030972,-0.035
0.0030978,-0.045
0.0030983,-0.06
0.0030989,-0.055
0.0030994,-0.05
0.0031,-0.05
0.0031006,-0.04
0.0031011,-0.03
0.0031017,-0.02
0.0031022,-0.01
0.0031028,0.005
0.0031033,0.01
0.0031039,-0.02
0.0031044,-0.025
0.003105,-0.015
0.0031056,-0.005
0.0031061,0.01
0.0031067,0.03
0.0031072,0.045
0.0031078,0.05
0.0031083,0.055
0.0031089,0.06
0.0031094,0.055
0.00311,0.055
0.0031106,0.055
0.0031111,0.055
0.0031117,0.07
0.0031122,0.085
0.0031128,0.095
0.0031133,0.1
0.0031139,0.115
0.0031144,0.11
0.003115,0.095
0.0031156,0.095
0.0031161,0.075
0.0031167,0.065
0.0031172,0.075
0.0031178,0.12
0.0031183,0.085
0.0031189,0.095
0.0031194,0.11
0.00312,0.095
0.0031206,0.075
0.0031211,0.055
0.0031217,0.04
0.0031222,0.035
0.0031228,0.02
0.0031233,0.035
0.0031239,0.035
0.0031244,0.025
0.003125,0.035
0.0031256,0
0.0031261,-0.03
0.0031267,-0.03
0.0031272,-0.035
0.0031278,-0.05
0.0031283,-0.07
0.0031289,-0.07
0.0031294,-0.07
0.00313,-0.06
0.0031306,-0.075
0.0031311,-0.1
0.0031317,-0.11
0.0031322,-0.125
0.0031328,-0.145
0.0031333,-0.155
0.0031339,-0.155
0.0031344,-0.135
0.003135,-0.135
0.0031356,-0.13
0.0031361,-0.115
0.0031367,-0.145
0.0031372,-0.145
0.0031378,-0.145
0.0031383,-0.165
0.0031389,-0.16
0.0031394,-0.15
0.00314,-0.155
0.0031406,-0.14
0.0031411,-0.15
0.0031417,-0.15
0.0031422,-0.175
0.0031428,-0.17
0.0031433,-0.17
0.0031439,-0.17
0.0031444,-0.165
0.003145,-0.165
0.0031456,-0.155
0.0031461,-0.155
0.0031467,-0.145
0.0031472,-0.145
0.0031478,-0.17
0.0031483,-0.16
0.0031489,-0.165
0.0031494,-0.165
0.00315,-0.155
0.0031506,-0.15
0.0031511,-0.15
0.0031517,-0.135
0.0031522,-0.135
0.0031528,-0.135
0.0031533,-0.155
0.0031539,-0.17
0.0031544,-0.17
0.003155,-0.155
0.0031556,-0.15
0.0031561,-0.15
0.0031567,-0.145
0.0031572,-0.14
0.0031578,-0.135
0.0031583,-0.15
0.0031589,-0.155
0.0031594,-0.165
0.00316,-0.16
0.0031606,-0.165
0.0031611,-0.155
0.0031617,-0.15
0.0031622,-0.14
0.0031628,-0.13
0.0031633,-0.12
0.0031639,-0.135
0.0031644,-0.15
0.003165,-0.155
0.0031656,-0.16
0.0031661,-0.16
0.0031667,-0.145
0.0031672,-0.145
0.0031678,-0.135
0.0031683,-0.135
0.0031689,-0.12
0.0031694,-0.135
0.00317,-0.145
0.0031706,-0.14
0.0031711,-0.145
0.0031717,-0.16
0.0031722,-0.15
0.0031728,-0.145
0.0031733,-0.135
0.0031739,-0.135
0.0031744,-0.125
0.003175,-0.14
0.0031756,-0.155
0.0031761,-0.15
0.0031767,-0.155
0.0031772,-0.165
0.0031778,-0.15
0.0031783,-0.15
0.0031789,-0.14
0.0031794,-0.14
0.00318,-0.135
0.0031806,-0.14
0.0031811,-0.155
0.0031817,-0.165
0.0031822,-0.16
0.0031828,-0.18
0.0031833,-0.17
0.0031839,-0.16
0.0031844,-0.165
0.003185,-0.13
0.0031856,-0.14
0.0031861,-0.145
0.0031867,-0.155
0.0031872,-0.155
0.0031878,-0.165
0.0031883,-0.17
0.0031889,-0.155
0.0031894,-0.145
0.00319,-0.13
0.0031906,-0.13
0.0031911,-0.125
0.0031917,-0.145
0.0031922,-0.145
0.0031928,-0.14
0.0031933,-0.155
0.0031939,-0.16
0.0031944,-0.155
0.003195,-0.155
0.0031956,-0.155
0.0031961,-0.135
0.0031967,-0.13
0.0031972,-0.145
0.0031978,-0.16
0.0031983,-0.165
0.0031989,-0.185
0.0031994,-0.185
0.0032,-0.155
0.0032006,-0.155
0.0032011,-0.15
0.0032017,-0.135
0.0032022,-0.135
0.0032028,-0.135
0.0032033,-0.135
0.0032039,-0.14
0.0032044,-0.155
0.003205,-0.15
0.0032056,-0.14
0.0032061,-0.125
0.0032067,-0.12
0.0032072,-0.12
0.0032078,-0.125
0.0032083,-0.145
0.0032089,-0.135
0.0032094,-0.15
0.00321,-0.14
0.0032106,-0.155
0.0032111,-0.13
0.0032117,-0.125
0.0032122,-0.11
0.0032128,-0.095
0.0032133,-0.085
0.0032139,-0.1
0.0032144,-0.1
0.003215,-0.105
0.0032156,-0.1
0.0032161,-0.105
0.0032167,-0.095
0.0032172,-0.08
0.0032178,-0.07
0.0032183,-0.07
0.0032189,-0.08
0.0032194,-0.09
0.00322,-0.115
0.0032206,-0.135
0.0032211,-0.145
0.0032217,-0.155
0.0032222,-0.135
0.0032228,-0.13
0.0032233,-0.15
0.0032239,-0.14
0.0032244,-0.15
0.003225,-0.155
0.0032256,-0.165
0.0032261,-0.17
0.0032267,-0.175
0.0032272,-0.175
0.0032278,-0.155
0.0032283,-0.15
0.0032289,-0.145
0.0032294,-0.155
0.00323,-0.145
0.0032306,-0.165
0.0032311,-0.18
0.0032317,-0.17
0.0032322,-0.18
0.0032328,-0.175
0.0032333,-0.16
0.0032339,-0.16
0.0032344,-0.16
0.003235,-0.155
0.0032356,-0.15
0.0032361,-0.16
0.0032367,-0.16
0.0032372,-0.14
0.0032378,-0.13
0.0032383,-0.11
0.0032389,-0.085
0.0032394,-0.075
0.00324,-0.065
0.0032406,-0.055
0.0032411,-0.06
0.0032417,-0.065
0.0032422,-0.065
0.0032428,-0.07
0.0032433,-0.07
0.0032439,-0.05
0.0032444,-0.04
0.003245,-0.03
0.0032456,-0.025
0.0032461,-0.025
0.0032467,-0.04
0.0032472,-0.045
0.0032478,-0.06
0.0032483,-0.075
0.0032489,-0.09
0.0032494,-0.07
0.00325,-0.07
0.0032506,-0.07
0.0032511,-0.07
0.0032517,-0.04
0.0032522,0.005
0.0032528,0.03
0.0032533,0.07
0.0032539,0.11
0.0032544,0.15
0.003255,0.2
0.0032556,0.275
0.0032561,0.37
0.0032567,0.485
0.0032572,0.58
0.0032578,0.61
0.0032583,0.57
0.0032589,0.505
0.0032594,0.44
0.00326,0.38
0.0032606,0.34
0.0032611,0.285
0.0032617,0.2
0.0032622,0.075
0.0032628,-0.02
0.0032633,-0.11
0.0032639,-0.155
0.0032644,-0.15
0.003265,-0.125
0.0032656,-0.11
0.0032661,-0.09
0.0032667,-0.05
0.0032672,-0.02
0.0032678,0.005
0.0032683,0.025
0.0032689,0.02
0.0032694,0
0.00327,-0.01
0.0032706,-0.02
0.0032711,-0.01
0.0032717,0
0.0032722,0
0.0032728,0
0.0032733,0
0.0032739,-0.005
0.0032744,-0.01
0.003275,-0.015
0.0032756,-0.005
0.0032761,-0.015
0.0032767,-0.005
0.0032772,0.005
0.0032778,0.005
0.0032783,0.02
0.0032789,0.03
0.0032794,0.04
0.00328,0.015
0.0032806,-0.005
0.0032811,-0.015
0.0032817,-0.02
0.0032822,-0.015
0.0032828,0
0.0032833,0.02
0.0032839,0.02
0.0032844,0.035
0.003285,0.035
0.0032856,0.02
0.0032861,0.01
0.0032867,0.005
0.0032872,0
0.0032878,0
0.0032883,0.025
0.0032889,0.04
0.0032894,0.025
0.00329,0.04
0.0032906,0.055
0.0032911,0.03
0.0032917,0.02
0.0032922,0.025
0.0032928,0.015
0.0032933,0.01
0.0032939,0.01
0.0032944,0.025
0.003295,0.03
0.0032956,0.04
0.0032961,0.045
0.0032967,0.04
0.0032972,0.03
0.0032978,0.02
0.0032983,0.025
0.0032989,0.025
0.0032994,0.035
0.0033,0.055
0.0033006,0.065
0.0033011,0.07
0.0033017,0.065
0.0033022,0.055
0.0033028,0.04
0.0033033,0.045
0.0033039,0.05
0.0033044,0.045
0.003305,0.06
0.0033056,0.065
0.0033061,0.07
0.0033067,0.085
0.0033072,0.09
0.0033078,0.08
0.0033083,0.07
0.0033089,0.07
0.0033094,0.075
0.00331,0.085
0.0033106,0.1
0.0033111,0.115
0.0033117,0.12
0.0033122,0.13
0.0033128,0.145
0.0033133,0.13
0.0033139,0.115
0.0033144,0.115
0.003315,0.11
0.0033156,0.11
0.0033161,0.13
0.0033167,0.14
0.0033172,0.16
0.0033178,0.17
0.0033183,0.17
0.0033189,0.15
0.0033194,0.125
0.00332,0.13
0.0033206,0.125
0.0033211,0.14
0.0033217,0.145
0.0033222,0.145
0.0033228,0.135
0.0033233,0.14
0.0033239,0.13
0.0033244,0.11
0.003325,0.1
0.0033256,0.08
0.0033261,0.055
0.0033267,0.07
0.0033272,0.085
0.0033278,0.08
0.0033283,0.06
0.0033289,0.075
0.0033294,0.06
0.00333,0.05
0.0033306,0.04
0.0033311,0.015
0.0033317,-0.005
0.0033322,0.005
0.0033328,-0.01
0.0033333,-0.005
0.0033339,-0.015
0.0033344,-0.015
0.003335,-0.03
0.0033356,-0.045
0.0033361,-0.04
0.0033367,-0.06
0.0033372,-0.07
0.0033378,-0.08
0.0033383,-0.075
0.0033389,-0.07
0.0033394,-0.065
0.00334,-0.07
0.0033406,-0.07
0.0033411,-0.07
0.0033417,-0.085
0.0033422,-0.09
0.0033428,-0.105
0.0033433,-0.1
0.0033439,-0.105
0.0033444,-0.095
0.003345,-0.075
0.0033456,-0.085
0.0033461,-0.1
0.0033467,-0.115
0.0033472,-0.12
0.0033478,-0.115
0.0033483,-0.13
0.0033489,-0.115
0.0033494,-0.105
0.00335,-0.105
0.0033506,-0.095
0.0033511,-0.09
0.0033517,-0.11
0.0033522,-0.145
0.0033528,-0.125
0.0033533,-0.13
0.0033539,-0.135
0.0033544,-0.125
0.003355,-0.12
0.0033556,-0.1
0.0033561,-0.08
0.0033567,-0.09
0.0033572,-0.11
0.0033578,-0.14
0.0033583,-0.13
0.0033589,-0.12
0.0033594,-0.135
0.00336,-0.13
0.0033606,-0.115
0.0033611,-0.12
0.0033617,-0.115
0.0033622,-0.105
0.0033628,-0.125
0.0033633,-0.12
0.0033639,-0.115
0.0033644,-0.125
0.003365,-0.145
0.0033656,-0.13
0.0033661,-0.12
0.0033667,-0.115
0.0033672,-0.095
0.0033678,-0.1
0.0033683,-0.115
0.0033689,-0.125
0.0033694,-0.13
0.00337,-0.13
0.0033706,-0.135
0.0033711,-0.11
0.0033717,-0.1
0.0033722,-0.115
0.0033728,-0.11
0.0033733,-0.11
0.0033739,-0.12
0.0033744,-0.13
0.003375,-0.13
0.0033756,-0.13
0.0033761,-0.15
0.0033767,-0.145
0.0033772,-0.1
0.0033778,-0.1
0.0033783,-0.095
0.0033789,-0.11
0.0033794,-0.13
0.00338,-0.14
0.0033806,-0.15
0.0033811,-0.14
0.0033817,-0.15
0.0033822,-0.14
0.0033828,-0.135
0.0033833,-0.12
0.0033839,-0.115
0.0033844,-0.115
0.003385,-0.115
0.0033856,-0.135
0.0033861,-0.15
0.0033867,-0.15
0.0033872,-0.165
0.0033878,-0.15
0.0033883,-0.145
0.0033889,-0.125
0.0033894,-0.125
0.00339,-0.135
0.0033906,-0.155
0.0033911,-0.16
0.0033917,-0.16
0.0033922,-0.155
0.0033928,-0.16
0.0033933,-0.14
0.0033939,-0.13
0.0033944,-0.135
0.003395,-0.12
0.0033956,-0.135
0.0033961,-0.155
0.0033967,-0.14
0.0033972,-0.145
0.0033978,-0.165
0.0033983,-0.16
0.0033989,-0.15
0.0033994,-0.14
0.0034,-0.125
0.0034006,-0.14
0.0034011,-0.13
0.0034017,-0.15
0.0034022,-0.14
0.0034028,-0.14
0.0034033,-0.15
0.0034039,-0.14
0.0034044,-0.125
0.003405,-0.12
0.0034056,-0.105
0.0034061,-0.095
0.0034067,-0.095
0.0034072,-0.12
0.0034078,-0.135
0.0034083,-0.135
0.0034089,-0.145
0.0034094,-0.145
0.00341,-0.125
0.0034106,-0.11
0.0034111,-0.115
0.0034117,-0.09
0.0034122,-0.07
0.0034128,-0.095
0.0034133,-0.09
0.0034139,-0.095
0.0034144,-0.11
0.003415,-0.095
0.0034156,-0.095
0.0034161,-0.085
0.0034167,-0.085
0.0034172,-0.07
0.0034178,-0.065
0.0034183,-0.095
0.0034189,-0.105
0.0034194,-0.12
0.00342,-0.125
0.0034206,-0.11
0.0034211,-0.115
0.0034217,-0.11
0.0034222,-0.115
0.0034228,-0.135
0.0034233,-0.14
0.0034239,-0.15
0.0034244,-0.155
0.003425,-0.17
0.0034256,-0.165
0.0034261,-0.145
0.0034267,-0.135
0.0034272,-0.145
0.0034278,-0.14
0.0034283,-0.13
0.0034289,-0.15
0.0034294,-0.17
0.00343,-0.18
0.0034306,-0.195
0.0034311,-0.205
0.0034317,-0.185
0.0034322,-0.17
0.0034328,-0.15
0.0034333,-0.145
0.0034339,-0.16
0.0034344,-0.165
0.003435,-0.17
0.0034356,-0.175
0.0034361,-0.19
0.0034367,-0.195
0.0034372,-0.185
0.0034378,-0.185
0.0034383,-0.17
0.0034389,-0.17
0.0034394,-0.165
0.00344,-0.165
0.0034406,-0.18
0.0034411,-0.195
0.0034417,-0.19
0.0034422,-0.195
0.0034428,-0.185
0.0034433,-0.175
0.0034439,-0.17
0.0034444,-0.165
0.003445,-0.165
0.0034456,-0.175
0.0034461,-0.18
0.0034467,-0.19
0.0034472,-0.2
0.0034478,-0.21
0.0034483,-0.19
0.0034489,-0.21
0.0034494,-0.215
0.00345,-0.195
0.0034506,-0.205
0.0034511,-0.205
0.0034517,-0.18
0.0034522,-0.15
0.0034528,-0.11
0.0034533,-0.05
0.0034539,0.005
0.0034544,0.045
0.003455,0.1
0.0034556,0.175
0.0034561,0.275
0.0034567,0.35
0.0034572,0.435
0.0034578,0.42
0.0034583,0.38
0.0034589,0.315
0.0034594,0.255
0.00346,0.205
0.0034606,0.15
0.0034611,0.07
0.0034617,-0.02
0.0034622,-0.13
0.0034628,-0.23
0.0034633,-0.315
0.0034639,-0.33
0.0034644,-0.295
0.003465,-0.26
0.0034656,-0.22
0.0034661,-0.19
0.0034667,-0.165
0.0034672,-0.17
0.0034678,-0.17
0.0034683,-0.17
0.0034689,-0.175
0.0034694,-0.175
0.00347,-0.18
0.0034706,-0.155
0.0034711,-0.14
0.0034717,-0.135
0.0034722,-0.14
0.0034728,-0.16
0.0034733,-0.15
0.0034739,-0.16
0.0034744,-0.165
0.003475,-0.17
0.0034756,-0.165
0.0034761,-0.15
0.0034767,-0.145
0.0034772,-0.135
0.0034778,-0.125
0.0034783,-0.13
0.0034789,-0.135
0.0034794,-0.155
0.00348,-0.16
0.0034806,-0.165
0.0034811,-0.15
0.0034817,-0.14
0.0034822,-0.13
0.0034828,-0.125
0.0034833,-0.11
0.0034839,-0.11
0.0034844,-0.115
0.003485,-0.14
0.0034856,-0.145
0.0034861,-0.14
0.0034867,-0.135
0.0034872,-0.125
0.0034878,-0.12
0.0034883,-0.12
0.0034889,-0.105
0.0034894,-0.11
0.00349,-0.12
0.0034906,-0.12
0.0034911,-0.125
0.0034917,-0.12
0.0034922,-0.12
0.0034928,-0.115
0.0034933,-0.105
0.0034939,-0.09
0.0034944,-0.085
0.003495,-0.095
0.0034956,-0.1
0.0034961,-0.095
0.0034967,-0.1
0.0034972,-0.105
0.0034978,-0.075
0.0034983,-0.08
0.0034989,-0.065
0.0034994,-0.065
0.0035,-0.05
0.0035006,-0.065
0.0035011,-0.065
0.0035017,-0.07
0.0035022,-0.055
0.0035028,-0.075
0.0035033,-0.065
0.0035039,-0.055
0.0035044,-0.045
0.003505,-0.04
0.0035056,-0.025
0.0035061,-0.025
0.0035067,-0.025
0.0035072,-0.025
0.0035078,-0.03
0.0035083,-0.025
0.0035089,-0.015
0.0035094,0.005
0.00351,0.005
0.0035106,0.015
0.0035111,0.015
0.0035117,0.025
0.0035122,0.015
0.0035128,0.02
0.0035133,0.03
0.0035139,0.01
0.0035144,0.035
0.003515,0.045
0.0035156,0.06
0.0035161,0.07
0.0035167,0.08
0.0035172,0.07
0.0035178,0.07
0.0035183,0.07
0.0035189,0.065
0.0035194,0.035
0.00352,0.06
0.0035206,0.065
0.0035211,0.075
0.0035217,0.06
0.0035222,0.09
0.0035228,0.07
0.0035233,0.05
0.0035239,0.045
0.0035244,0.04
0.003525,0.04
0.0035256,0.04
0.0035261,0.05
0.0035267,0.03
0.0035272,0.03
0.0035278,0.025
0.0035283,0.005
0.0035289,-0.025
0.0035294,-0.035
0.00353,-0.045
0.0035306,-0.06
0.0035311,-0.065
0.0035317,-0.06
0.0035322,-0.07
0.0035328,-0.07
0.0035333,-0.065
0.0035339,-0.09
0.0035344,-0.105
0.003535,-0.115
0.0035356,-0.125
0.0035361,-0.135
0.0035367,-0.13
0.0035372,-0.13
0.0035378,-0.125
0.0035383,-0.12
0.0035389,-0.125
0.0035394,-0.145
0.00354,-0.145
0.0035406,-0.155
0.0035411,-0.16
0.0035417,-0.165
0.0035422,-0.16
0.0035428,-0.145
0.0035433,-0.14
0.0035439,-0.135
0.0035444,-0.135
0.003545,-0.145
0.0035456,-0.15
0.0035461,-0.16
0.0035467,-0.17
0.0035472,-0.17
0.0035478,-0.155
0.0035483,-0.15
0.0035489,-0.14
0.0035494,-0.135
0.00355,-0.14
0.0035506,-0.145
0.0035511,-0.165
0.0035517,-0.16
0.0035522,-0.165
0.0035528,-0.16
0.0035533,-0.15
0.0035539,-0.14
0.0035544,-0.14
0.003555,-0.14
0.0035556,-0.145
0.0035561,-0.155
0.0035567,-0.17
0.0035572,-0.18
0.0035578,-0.18
0.0035583,-0.165
0.0035589,-0.155
0.0035594,-0.15
0.00356,-0.13
0.0035606,-0.12
0.0035611,-0.14
0.0035617,-0.14
0.0035622,-0.135
0.0035628,-0.145
0.0035633,-0.155
0.0035639,-0.15
0.0035644,-0.15
0.003565,-0.15
0.0035656,-0.15
0.0035661,-0.13
0.0035667,-0.135
0.0035672,-0.13
0.0035678,-0.15
0.0035683,-0.15
0.0035689,-0.14
0.0035694,-0.145
0.00357,-0.125
0.0035706,-0.12
0.0035711,-0.12
0.0035717,-0.12
0.0035722,-0.13
0.0035728,-0.125
0.0035733,-0.14
0.0035739,-0.155
0.0035744,-0.15
0.003575,-0.155
0.0035756,-0.13
0.0035761,-0.12
0.0035767,-0.11
0.0035772,-0.11
0.0035778,-0.13
0.0035783,-0.14
0.0035789,-0.15
0.0035794,-0.16
0.00358,-0.16
0.0035806,-0.15
0.0035811,-0.145
0.0035817,-0.13
0.0035822,-0.12
0.0035828,-0.115
0.0035833,-0.13
0.0035839,-0.14
0.0035844,-0.15
0.003585,-0.155
0.0035856,-0.155
0.0035861,-0.14
0.0035867,-0.14
0.0035872,-0.125
0.0035878,-0.1
0.0035883,-0.11
0.0035889,-0.13
0.0035894,-0.145
0.00359,-0.155
0.0035906,-0.16
0.0035911,-0.165
0.0035917,-0.16
0.0035922,-0.15
0.0035928,-0.145
0.0035933,-0.125
0.0035939,-0.135
0.0035944,-0.15
0.003595,-0.16
0.0035956,-0.155
0.0035961,-0.16
0.0035967,-0.155
0.0035972,-0.13
0.0035978,-0.135
0.0035983,-0.13
0.0035989,-0.12
0.0035994,-0.11
0.0036,-0.12
0.0036006,-0.135
0.0036011,-0.15
0.0036017,-0.14
0.0036022,-0.155
0.0036028,-0.15
0.0036033,-0.125
0.0036039,-0.125
0.0036044,-0.105
0.003605,-0.11
0.0036056,-0.12
0.0036061,-0.12
0.0036067,-0.125
0.0036072,-0.13
0.0036078,-0.14
0.0036083,-0.12
0.0036089,-0.115
0.0036094,-0.115
0.00361,-0.1
0.0036106,-0.105
0.0036111,-0.125
0.0036117,-0.135
0.0036122,-0.125
0.0036128,-0.12
0.0036133,-0.105
0.0036139,-0.09
0.0036144,-0.085
0.003615,-0.065
0.0036156,-0.075
0.0036161,-0.08
0.0036167,-0.08
0.0036172,-0.085
0.0036178,-0.09
0.0036183,-0.095
0.0036189,-0.105
0.0036194,-0.085
0.00362,-0.08
0.0036206,-0.085
0.0036211,-0.08
0.0036217,-0.08
0.0036222,-0.105
0.0036228,-0.12
0.0036233,-0.125
0.0036239,-0.145
0.0036244,-0.165
0.003625,-0.165
0.0036256,-0.15
0.0036261,-0.15
0.0036267,-0.145
0.0036272,-0.135
0.0036278,-0.155
0.0036283,-0.16
0.0036289,-0.165
0.0036294,-0.16
0.00363,-0.17
0.0036306,-0.165
0.0036311,-0.155
0.0036317,-0.16
0.0036322,-0.14
0.0036328,-0.155
0.0036333,-0.18
0.0036339,-0.185
0.0036344,-0.18
0.003635,-0.19
0.0036356,-0.19
0.0036361,-0.175
0.0036367,-0.16
0.0036372,-0.155
0.0036378,-0.15
0.0036383,-0.14
0.0036389,-0.16
0.0036394,-0.17
0.00364,-0.18
0.0036406,-0.195
0.0036411,-0.2
0.0036417,-0.17
0.0036422,-0.16
0.0036428,-0.16
0.0036433,-0.16
0.0036439,-0.16
0.0036444,-0.165
0.003645,-0.17
0.0036456,-0.185
0.0036461,-0.18
0.0036467,-0.17
0.0036472,-0.155
0.0036478,-0.15
0.0036483,-0.16
0.0036489,-0.175
0.0036494,-0.185
0.00365,-0.2
0.0036506,-0.205
0.0036511,-0.23
0.0036517,-0.25
0.0036522,-0.24
0.0036528,-0.215
0.0036533,-0.155
0.0036539,-0.11
0.0036544,-0.045
0.003655,-0.02
0.0036556,0.035
0.0036561,0.095
0.0036567,0.16
0.0036572,0.235
0.0036578,0.35
0.0036583,0.47
0.0036589,0.565
0.0036594,0.565
0.00366,0.52
0.0036606,0.45
0.0036611,0.365
0.0036617,0.27
0.0036622,0.175
0.0036628,0.085
0.0036633,-0.035
0.0036639,-0.14
0.0036644,-0.25
0.003665,-0.28
0.0036656,-0.26
0.0036661,-0.24
0.0036667,-0.225
0.0036672,-0.205
0.0036678,-0.19
0.0036683,-0.17
0.0036689,-0.155
0.0036694,-0.145
0.00367,-0.13
0.0036706,-0.125
0.0036711,-0.135
0.0036717,-0.13
0.0036722,-0.145
0.0036728,-0.16
0.0036733,-0.17
0.0036739,-0.165
0.0036744,-0.15
0.003675,-0.135
0.0036756,-0.135
0.0036761,-0.13
0.0036767,-0.13
0.0036772,-0.135
0.0036778,-0.14
0.0036783,-0.145
0.0036789,-0.15
0.0036794,-0.155
0.00368,-0.135
0.0036806,-0.115
0.0036811,-0.12
0.0036817,-0.12
0.0036822,-0.125
0.0036828,-0.13
0.0036833,-0.13
0.0036839,-0.125
0.0036844,-0.125
0.003685,-0.13
0.0036856,-0.11
0.0036861,-0.105
0.0036867,-0.105
0.0036872,-0.09
0.0036878,-0.075
0.0036883,-0.09
0.0036889,-0.1
0.0036894,-0.1
0.00369,-0.105
0.0036906,-0.115
0.0036911,-0.1
0.0036917,-0.095
0.0036922,-0.095
0.0036928,-0.08
0.0036933,-0.07
0.0036939,-0.085
0.0036944,-0.09
0.003695,-0.095
0.0036956,-0.09
0.0036961,-0.09
0.0036967,-0.085
0.0036972,-0.07
0.0036978,-0.055
0.0036983,-0.05
0.0036989,-0.04
0.0036994,-0.06
0.0037,-0.07
0.0037006,-0.075
0.0037011,-0.07
0.0037017,-0.065
0.0037022,-0.05
0.0037028,-0.05
0.0037033,-0.035
0.0037039,-0.035
0.0037044,-0.02
0.003705,-0.035
0.0037056,-0.035
0.0037061,-0.03
0.0037067,-0.02
0.0037072,-0.015
0.0037078,-0.015
0.0037083,0.005
0.0037089,0.015
0.0037094,0.035
0.00371,0.05
0.0037106,0.04
0.0037111,0.01
0.0037117,0.035
0.0037122,0.045
0.0037128,0.045
0.0037133,0.065
0.0037139,0.075
0.0037144,0.085
0.003715,0.1
0.0037156,0.1
0.0037161,0.1
0.0037167,0.095
0.0037172,0.09
0.0037178,0.085
0.0037183,0.09
0.0037189,0.11
0.0037194,0.12
0.00372,0.115
0.0037206,0.13
0.0037211,0.13
0.0037217,0.115
0.0037222,0.11
0.0037228,0.11
0.0037233,0.095
0.0037239,0.095
0.0037244,0.095
0.003725,0.11
0.0037256,0.125
0.0037261,0.145
0.0037267,0.145
0.0037272,0.125
0.0037278,0.135
0.0037283,0.12
0.0037289,0.115
0.0037294,0.125
0.00373,0.12
0.0037306,0.13
0.0037311,0.12
0.0037317,0.115
0.0037322,0.125
0.0037328,0.105
0.0037333,0.07
0.0037339,0.075
0.0037344,0.06
0.003735,0.055
0.0037356,0.05
0.0037361,0.065
0.0037367,0.06
0.0037372,0.065
0.0037378,0.065
0.0037383,0.045
0.0037389,0.035
0.0037394,0.01
0.00374,0.01
0.0037406,0.01
0.0037411,0.03
0.0037417,0.025
0.0037422,0.03
0.0037428,0.035
0.0037433,0.03
0.0037439,0.015
0.0037444,0
0.003745,0.005
0.0037456,-0.005
0.0037461,-0.01
0.0037467,0.015
0.0037472,0.02
0.0037478,0.015
0.0037483,0.015
0.0037489,0.015
0.0037494,0
0.00375,-0.01
0.0037506,-0.025
0.0037511,-0.01
0.0037517,0.01
0.0037522,0.01
0.0037528,0.02
0.0037533,0.02
0.0037539,0.02
0.0037544,0.025
0.003755,0.02
0.0037556,-0.01
0.0037561,-0.02
0.0037567,-0.015
0.0037572,-0.01
0.0037578,0
0.0037583,0.01
0.0037589,0.005
0.0037594,0.03
0.00376,0.02
0.0037606,0.01
0.0037611,-0.015
0.0037617,-0.02
0.0037622,-0.005
0.0037628,0
0.0037633,0.015
0.0037639,0.01
0.0037644,0.03
0.003765,0.025
0.0037656,0.02
0.0037661,0.005
0.0037667,0
0.0037672,-0.01
0.0037678,-0.01
0.0037683,0.01
0.0037689,0.015
0.0037694,0.015
0.00377,0.025
0.0037706,0.025
0.0037711,0.015
0.0037717,0
0.0037722,-0.01
0.0037728,-0.015
0.0037733,-0.01
0.0037739,-0.005
0.0037744,0.005
0.003775,0.01
0.0037756,0.02
0.0037761,0.025
0.0037767,0.01
0.0037772,-0.005
0.0037778,-0.015
0.0037783,-0.035
0.0037789,-0.025
0.0037794,-0.01
0.00378,0.005
0.0037806,0.005
0.0037811,0
0.0037817,0.005
0.0037822,-0.015
0.0037828,-0.025
0.0037833,-0.02
0.0037839,-0.03
0.0037844,-0.035
0.003785,-0.015
0.0037856,-0.01
0.0037861,-0.01
0.0037867,-0.005
0.0037872,0.01
0.0037878,-0.01
0.0037883,-0.03
0.0037889,-0.045
0.0037894,-0.055
0.00379,-0.035
0.0037906,-0.06
0.0037911,-0.04
0.0037917,-0.03
0.0037922,-0.035
0.0037928,-0.035
0.0037933,-0.045
0.0037939,-0.06
0.0037944,-0.07
0.003795,-0.075
0.0037956,-0.07
0.0037961,-0.055
0.0037967,-0.04
0.0037972,-0.04
0.0037978,-0.035
0.0037983,-0.035
0.0037989,-0.05
0.0037994,-0.07
0.0038,-0.075
0.0038006,-0.075
0.0038011,-0.095
0.0038017,-0.075
0.0038022,-0.06
0.0038028,-0.06
0.0038033,-0.06
0.0038039,-0.06
0.0038044,-0.075
0.003805,-0.09
0.0038056,-0.095
0.0038061,-0.105
0.0038067,-0.1
0.0038072,-0.08
0.0038078,-0.075
0.0038083,-0.07
0.0038089,-0.055
0.0038094,-0.05
0.00381,-0.065
0.0038106,-0.08
0.0038111,-0.085
0.0038117,-0.09
0.0038122,-0.095
0.0038128,-0.075
0.0038133,-0.06
0.0038139,-0.05
0.0038144,-0.045
0.003815,-0.045
0.0038156,-0.065
0.0038161,-0.08
0.0038167,-0.085
0.0038172,-0.085
0.0038178,-0.085
0.0038183,-0.08
0.0038189,-0.06
0.0038194,-0.05
0.00382,-0.05
0.0038206,-0.045
0.0038211,-0.045
0.0038217,-0.055
0.0038222,-0.055
0.0038228,-0.06
0.0038233,-0.05
0.0038239,-0.035
0.0038244,-0.025
0.003825,-0.025
0.0038256,-0.02
0.0038261,-0.035
0.0038267,-0.04
0.0038272,-0.055
0.0038278,-0.08
0.0038283,-0.09
0.0038289,-0.09
0.0038294,-0.085
0.00383,-0.09
0.0038306,-0.105
0.0038311,-0.11
0.0038317,-0.12
0.0038322,-0.12
0.0038328,-0.145
0.0038333,-0.14
0.0038339,-0.145
0.0038344,-0.135
0.003835,-0.12
0.0038356,-0.11
0.0038361,-0.1
0.0038367,-0.11
0.0038372,-0.115
0.0038378,-0.12
0.0038383,-0.14
0.0038389,-0.15
0.0038394,-0.165
0.00384,-0.155
0.0038406,-0.14
0.0038411,-0.135
0.0038417,-0.12
0.0038422,-0.125
0.0038428,-0.135
0.0038433,-0.145
0.0038439,-0.165
0.0038444,-0.165
0.003845,-0.16
0.0038456,-0.145
0.0038461,-0.145
0.0038467,-0.14
0.0038472,-0.12
0.0038478,-0.11
0.0038483,-0.115
0.0038489,-0.13
0.0038494,-0.145
0.00385,-0.15
0.0038506,-0.16
0.0038511,-0.155
0.0038517,-0.135
0.0038522,-0.145
0.0038528,-0.125
0.0038533,-0.12
0.0038539,-0.15
0.0038544,-0.17
0.003855,-0.18
0.0038556,-0.18
0.0038561,-0.185
0.0038567,-0.175
0.0038572,-0.175
0.0038578,-0.195
0.0038583,-0.18
0.0038589,-0.165
0.0038594,-0.155
0.00386,-0.125
0.0038606,-0.075
0.0038611,-0.025
0.0038617,0.025
0.0038622,0.11
0.0038628,0.205
0.0038633,0.295
0.0038639,0.42
0.0038644,0.545
0.003865,0.63
0.0038656,0.6
0.0038661,0.57
0.0038667,0.485
0.0038672,0.42
0.0038678,0.355
0.0038683,0.265
0.0038689,0.18
0.0038694,0.05
0.00387,-0.08
0.0038706,-0.205
0.0038711,-0.265
0.0038717,-0.265
0.0038722,-0.255
0.0038728,-0.24
0.0038733,-0.2
0.0038739,-0.165
0.0038744,-0.15
0.003875,-0.12
0.0038756,-0.115
0.0038761,-0.11
0.0038767,-0.13
0.0038772,-0.135
0.0038778,-0.13
0.0038783,-0.135
0.0038789,-0.125
0.0038794,-0.115
0.00388,-0.115
0.0038806,-0.115
0.0038811,-0.105
0.0038817,-0.11
0.0038822,-0.12
0.0038828,-0.13
0.0038833,-0.125
0.0038839,-0.135
0.0038844,-0.12
0.003885,-0.12
0.0038856,-0.1
0.0038861,-0.1
0.0038867,-0.11
0.0038872,-0.1
0.0038878,-0.125
0.0038883,-0.125
0.0038889,-0.125
0.0038894,-0.12
0.00389,-0.105
0.0038906,-0.1
0.0038911,-0.09
0.0038917,-0.08
0.0038922,-0.095
0.0038928,-0.095
0.0038933,-0.105
0.0038939,-0.105
0.0038944,-0.115
0.003895,-0.115
0.0038956,-0.1
0.0038961,-0.095
0.0038967,-0.08
0.0038972,-0.065
0.0038978,-0.065
0.0038983,-0.08
0.0038989,-0.09
0.0038994,-0.095
0.0039,-0.105
0.0039006,-0.1
0.0039011,-0.08
0.0039017,-0.075
0.0039022,-0.06
0.0039028,-0.05
0.0039033,-0.055
0.0039039,-0.065
0.0039044,-0.085
0.003905,-0.08
0.0039056,-0.095
0.0039061,-0.07
0.0039067,-0.04
0.0039072,-0.035
0.0039078,-0.03
0.0039083,-0.025
0.0039089,-0.035
0.0039094,-0.035
0.00391,-0.04
0.0039106,-0.035
0.0039111,-0.045
0.0039117,-0.03
0.0039122,-0.01
0.0039128,0.005
0.0039133,0.01
0.0039139,0.03
0.0039144,0.035
0.003915,0.025
0.0039156,0.02
0.0039161,0.02
0.0039167,0.03
0.0039172,0.04
0.0039178,0.065
0.0039183,0.07
0.0039189,0.07
0.0039194,0.075
0.00392,0.07
0.0039206,0.06
0.0039211,0.06
0.0039217,0.065
0.0039222,0.065
0.0039228,0.07
0.0039233,0.095
0.0039239,0.11
0.0039244,0.11
0.003925,0.12
0.0039256,0.11
0.0039261,0.1
0.0039267,0.085
0.0039272,0.09
0.0039278,0.085
0.0039283,0.09
0.0039289,0.105
0.0039294,0.11
0.00393,0.11
0.0039306,0.115
0.0039311,0.115
0.0039317,0.1
0.0039322,0.085
0.0039328,0.06
0.0039333,0.06
0.0039339,0.05
0.0039344,0.055
0.003935,0.055
0.0039356,0.03
0.0039361,0.025
0.0039367,0.03
0.0039372,0.005
0.0039378,0.005
0.0039383,-0.015
0.0039389,-0.03
0.0039394,-0.025
0.00394,-0.015
0.0039406,-0.02
0.0039411,-0.03
0.0039417,-0.03
0.0039422,-0.06
0.0039428,-0.075
0.0039433,-0.08
0.0039439,-0.1
0.0039444,-0.095
0.003945,-0.1
0.0039456,-0.095
0.0039461,-0.095
0.0039467,-0.105
0.0039472,-0.105
0.0039478,-0.115
0.0039483,-0.135
0.0039489,-0.14
0.0039494,-0.145
0.00395,-0.14
0.0039506,-0.135
0.0039511,-0.125
0.0039517,-0.115
0.0039522,-0.115
0.0039528,-0.115
0.0039533,-0.125
0.0039539,-0.135
0.0039544,-0.135
0.003955,-0.15
0.0039556,-0.15
0.0039561,-0.13
0.0039567,-0.115
0.0039572,-0.12
0.0039578,-0.11
0.0039583,-0.12
0.0039589,-0.135
0.0039594,-0.15
0.00396,-0.155
0.0039606,-0.155
0.0039611,-0.145
0.0039617,-0.135
0.0039622,-0.13
0.0039628,-0.125
0.0039633,-0.11
0.0039639,-0.11
0.0039644,-0.115
0.003965,-0.125
0.0039656,-0.13
0.0039661,-0.14
0.0039667,-0.145
0.0039672,-0.14
0.0039678,-0.13
0.0039683,-0.125
0.0039689,-0.12
0.0039694,-0.115
0.00397,-0.13
0.0039706,-0.12
0.0039711,-0.125
0.0039717,-0.135
0.0039722,-0.14
0.0039728,-0.135
0.0039733,-0.12
0.0039739,-0.115
0.0039744,-0.11
0.003975,-0.115
0.0039756,-0.135
0.0039761,-0.14
0.0039767,-0.145
0.0039772,-0.145
0.0039778,-0.135
0.0039783,-0.115
0.0039789,-0.115
0.0039794,-0.105
0.00398,-0.11
0.0039806,-0.12
0.0039811,-0.125
0.0039817,-0.135
0.0039822,-0.14
0.0039828,-0.16
0.0039833,-0.15
0.0039839,-0.13
0.0039844,-0.12
0.003985,-0.11
0.0039856,-0.115
0.0039861,-0.13
0.0039867,-0.145
0.0039872,-0.13
0.0039878,-0.15
0.0039883,-0.16
0.0039889,-0.145
0.0039894,-0.135
0.00399,-0.12
0.0039906,-0.125
0.0039911,-0.135
0.0039917,-0.135
0.0039922,-0.15
0.0039928,-0.145
0.0039933,-0.165
0.0039939,-0.165
0.0039944,-0.17
0.003995,-0.145
0.0039956,-0.12
0.0039961,-0.13
0.0039967,-0.125
0.0039972,-0.14
0.0039978,-0.15
0.0039983,-0.16
0.0039989,-0.155
0.0039994,-0.15
0.004,-0.155
0.0040006,-0.14
0.0040011,-0.135
0.0040017,-0.14
0.0040022,-0.135
0.0040028,-0.15
0.0040033,-0.155
0.0040039,-0.165
0.0040044,-0.16
0.004005,-0.175
0.0040056,-0.17
0.0040061,-0.165
0.0040067,-0.155
0.0040072,-0.14
0.0040078,-0.14
0.0040083,-0.155
0.0040089,-0.165
0.0040094,-0.16
0.00401,-0.16
0.0040106,-0.175
0.0040111,-0.155
0.0040117,-0.16
0.0040122,-0.145
0.0040128,-0.135
0.0040133,-0.14
0.0040139,-0.155
0.0040144,-0.155
0.004015,-0.16
0.0040156,-0.165
0.0040161,-0.175
0.0040167,-0.165
0.0040172,-0.155
0.0040178,-0.14
0.0040183,-0.125
0.0040189,-0.13
0.0040194,-0.14
0.00402,-0.15
0.0040206,-0.155
0.0040211,-0.16
0.0040217,-0.18
0.0040222,-0.165
0.0040228,-0.155
0.0040233,-0.14
0.0040239,-0.14
0.0040244,-0.14
0.004025,-0.15
0.0040256,-0.15
0.0040261,-0.135
0.0040267,-0.135
0.0040272,-0.16
0.0040278,-0.135
0.0040283,-0.125
0.0040289,-0.12
0.0040294,-0.1
0.00403,-0.095
0.0040306,-0.11
0.0040311,-0.135
0.0040317,-0.135
0.0040322,-0.13
0.0040328,-0.125
0.0040333,-0.125
0.0040339,-0.115
0.0040344,-0.11
0.004035,-0.11
0.0040356,-0.09
0.0040361,-0.1
0.0040367,-0.115
0.0040372,-0.11
0.0040378,-0.105
0.0040383,-0.1
0.0040389,-0.1
0.0040394,-0.09
0.00404,-0.09
0.0040406,-0.075
0.0040411,-0.08
0.0040417,-0.07
0.0040422,-0.095
0.0040428,-0.105
0.0040433,-0.115
0.0040439,-0.125
0.0040444,-0.115
0.004045,-0.115
0.0040456,-0.1
0.0040461,-0.09
0.0040467,-0.12
0.0040472,-0.15
0.0040478,-0.155
0.0040483,-0.17
0.0040489,-0.16
0.0040494,-0.165
0.00405,-0.16
0.0040506,-0.135
0.0040511,-0.13
0.0040517,-0.125
0.0040522,-0.14
0.0040528,-0.15
0.0040533,-0.165
0.0040539,-0.17
0.0040544,-0.18
0.004055,-0.18
0.0040556,-0.155
0.0040561,-0.15
0.0040567,-0.165
0.0040572,-0.155
0.0040578,-0.16
0.0040583,-0.16
0.0040589,-0.165
0.0040594,-0.185
0.00406,-0.17
0.0040606,-0.185
0.0040611,-0.165
0.0040617,-0.145
0.0040622,-0.14
0.0040628,-0.13
0.0040633,-0.145
0.0040639,-0.17
0.0040644,-0.195
0.004065,-0.195
0.0040656,-0.2
0.0040661,-0.205
0.0040667,-0.175
0.0040672,-0.165
0.0040678,-0.16
0.0040683,-0.16
0.0040689,-0.17
0.0040694,-0.175
0.00407,-0.185
0.0040706,-0.195
0.0040711,-0.205
0.0040717,-0.215
0.0040722,-0.205
0.0040728,-0.19
0.0040733,-0.2
0.0040739,-0.2
0.0040744,-0.195
0.004075,-0.19
0.0040756,-0.17
0.0040761,-0.125
0.0040767,-0.065
0.0040772,-0.01
0.0040778,0.075
0.0040783,0.145
0.0040789,0.215
0.0040794,0.32
0.00408,0.445
0.0040806,0.535
0.0040811,0.55
0.0040817,0.54
0.0040822,0.48
0.0040828,0.43
0.0040833,0.365
0.0040839,0.285
0.0040844,0.195
0.004085,0.11
0.0040856,-0.025
0.0040861,-0.155
0.0040867,-0.245
0.0040872,-0.3
0.0040878,-0.29
0.0040883,-0.26
0.0040889,-0.225
0.0040894,-0.2
0.00409,-0.18
0.0040906,-0.15
0.0040911,-0.15
0.0040917,-0.145
0.0040922,-0.145
0.0040928,-0.14
0.0040933,-0.14
0.0040939,-0.13
0.0040944,-0.125
0.004095,-0.12
0.0040956,-0.135
0.0040961,-0.115
0.0040967,-0.115
0.0040972,-0.135
0.0040978,-0.15
0.0040983,-0.145
0.0040989,-0.155
0.0040994,-0.14
0.0041,-0.11
0.0041006,-0.115
0.0041011,-0.105
0.0041017,-0.105
0.0041022,-0.11
0.0041028,-0.11
0.0041033,-0.105
0.0041039,-0.11
0.0041044,-0.13
0.004105,-0.125
0.0041056,-0.115
0.0041061,-0.1
0.0041067,-0.1
0.0041072,-0.1
0.0041078,-0.105
0.0041083,-0.11
0.0041089,-0.12
0.0041094,-0.12
0.00411,-0.125
0.0041106,-0.095
0.0041111,-0.08
0.0041117,-0.085
0.0041122,-0.08
0.0041128,-0.075
0.0041133,-0.075
0.0041139,-0.085
0.0041144,-0.09
0.004115,-0.09
0.0041156,-0.085
0.0041161,-0.07
0.0041167,-0.06
0.0041172,-0.055
0.0041178,-0.055
0.0041183,-0.045
0.0041189,-0.05
0.0041194,-0.065
0.00412,-0.055
0.0041206,-0.08
0.0041211,-0.075
0.0041217,-0.05
0.0041222,-0.04
0.0041228,-0.04
0.0041233,-0.035
0.0041239,-0.04
0.0041244,-0.045
0.004125,-0.045
0.0041256,-0.03
0.0041261,-0.04
0.0041267,-0.02
0.0041272,-0.01
0.0041278,0
0.0041283,0
0.0041289,0.005
0.0041294,0.005
0.00413,-0.005
0.0041306,-0.005
0.0041311,0.005
0.0041317,-0.005
0.0041322,0
0.0041328,0.025
0.0041333,0.035
0.0041339,0.055
0.0041344,0.07
0.004135,0.09
0.0041356,0.08
0.0041361,0.07
0.0041367,0.065
0.0041372,0.055
0.0041378,0.07
0.0041383,0.07
0.0041389,0.09
0.0041394,0.11
0.00414,0.12
0.0041406,0.12
0.0041411,0.115
0.0041417,0.11
0.0041422,0.115
0.0041428,0.095
0.0041433,0.1
0.0041439,0.12
0.0041444,0.115
0.004145,0.12
0.0041456,0.115
0.0041461,0.095
0.0041467,0.085
0.0041472,0.08
0.0041478,0.07
0.0041483,0.065
0.0041489,0.055
0.0041494,0.055
0.00415,0.06
0.0041506,0.055
0.0041511,0.05
0.0041517,0.05
0.0041522,0.025
0.0041528,-0.005
0.0041533,-0.02
0.0041539,-0.03
0.0041544,-0.035
0.004155,-0.03
0.0041556,-0.02
0.0041561,-0.02
0.0041567,-0.02
0.0041572,-0.045
0.0041578,-0.06
0.0041583,-0.07
0.0041589,-0.07
0.0041594,-0.095
0.00416,-0.085
0.0041606,-0.085
0.0041611,-0.08
0.0041617,-0.08
0.0041622,-0.075
0.0041628,-0.09
0.0041633,-0.105
0.0041639,-0.115
0.0041644,-0.11
0.004165,-0.115
0.0041656,-0.115
0.0041661,-0.13
0.0041667,-0.135
0.0041672,-0.135
0.0041678,-0.135
0.0041683,-0.14
0.0041689,-0.14
0.0041694,-0.14
0.00417,-0.14
0.0041706,-0.145
0.0041711,-0.14
0.0041717,-0.125
0.0041722,-0.12
0.0041728,-0.12
0.0041733,-0.115
0.0041739,-0.12
0.0041744,-0.135
0.004175,-0.13
0.0041756,-0.14
0.0041761,-0.15
0.0041767,-0.16
0.0041772,-0.12
0.0041778,-0.115
0.0041783,-0.11
0.0041789,-0.105
0.0041794,-0.12
0.00418,-0.115
0.0041806,-0.13
0.0041811,-0.145
0.0041817,-0.135
0.0041822,-0.11
0.0041828,-0.095
0.0041833,-0.11
0.0041839,-0.115
0.0041844,-0.11
0.004185,-0.11
0.0041856,-0.12
0.0041861,-0.125
0.0041867,-0.125
0.0041872,-0.13
0.0041878,-0.135
0.0041883,-0.12
0.0041889,-0.11
